timestamp,value-0,value-1,is_anomaly
0,0.19477740586637293,0.3546356003503526,0
1,0.35970954813933614,0.4554418524370079,0
2,0.7249640097204074,0.6429603544823396,0
3,0.9391244201440918,1.0976484735352294,0
4,1.7095559017215585,1.784711901185255,0
5,2.2429613552983874,2.4922918824006683,0
6,3.1686812404482976,3.329388182569167,0
7,4.248804233953806,4.04353260379945,0
8,4.964563408094196,5.191106779168228,0
9,5.663947256472576,5.806515696818296,0
10,6.527082418649534,6.37815266648084,0
11,6.839463964809045,6.813425855864186,0
12,7.063652513500819,6.989625494786676,0
13,6.74495093172566,6.872851073164744,0
14,5.981144498186074,6.05548332431908,0
15,5.016982729000437,4.955975284174878,0
16,3.6938239449308536,3.7281204722533943,0
17,2.544089486054218,2.3634628277501206,0
18,0.9973118287385937,0.7965290340634514,0
19,-0.7396648592194821,-0.5468517080679604,0
20,-1.742431658987582,-1.763285632453468,0
21,-2.6229602164629235,-2.635307127536801,0
22,-2.9376496114961235,-2.9956693685334206,0
23,-2.8337337151401023,-2.955087861278348,0
24,-2.6974990029126285,-2.6568382088875557,0
25,-2.1206288574776164,-1.9228888478490824,0
26,-1.2573258243204288,-1.297770946667445,0
27,-0.39726860882494197,-0.15792792054482896,0
28,0.563905245909757,0.431560772244284,0
29,1.0990314451105168,0.9948565377834091,0
30,1.5387515539943675,1.4655898425134222,0
31,1.596108333024984,1.4981102294438173,0
32,1.5967069944155559,1.4630087696952547,0
33,1.0507727288772812,1.0394984085235999,0
34,0.8349709367341988,0.7809369431139894,0
35,0.24919544766460794,0.24479280325102803,0
36,-0.10193334942934958,-0.40377465982518124,0
37,-0.37169915994234604,-0.5857268641444201,0
38,-0.7434632765037246,-0.8612950885272102,0
39,-0.800110119031653,-0.7097786889002636,0
40,-0.7540582213663563,-0.5049197622634711,0
41,-0.4668664606353136,-0.5804272295949888,0
42,-0.17683109076039238,-0.20110720147153938,0
43,0.1720387452895163,-0.2025557795399755,0
44,0.18713103065268996,0.3907574411123289,0
45,0.27754820639607514,0.2859635634625122,0
46,0.24884924523857177,0.37148286436502836,0
47,0.39297063662023735,0.3820587536073442,0
48,0.2550059638531813,0.1770367808637292,0
49,0.11134130924021199,0.17667008358074776,0
50,0.22137540680068132,0.09999641005530766,0
51,-0.09652675982936977,-0.06483205723791984,0
52,-0.02206819659964438,-0.0639695849610227,0
53,0.03092884985166551,-0.14745583866109652,0
54,-0.1954406878173647,-0.21557860546965749,0
55,-0.05556081200631529,-0.005973565323822386,0
56,-0.011840240115968029,0.05700889144539137,0
57,-0.026474905843275793,0.10021581352000301,0
58,0.030966887836272505,0.10952620729108312,0
59,0.2819978315263002,0.009069246959082462,0
60,0.1672947592074665,-0.042179992473018374,0
61,-0.05440713187792895,-0.09850078582842312,0
62,0.10764470686854757,-0.11943857507454106,0
63,-0.040841570933730136,0.03421980951684815,0
64,0.09011214777538121,-0.13199855943190583,0
65,0.05567332100702345,0.26332985100506484,0
66,0.006930379701534983,-0.07004370558203647,0
67,0.10000815546689264,0.0700787326651789,0
68,-0.0175112121081765,0.09109094799943693,0
69,0.09724578194809959,-0.06403068827264856,0
70,0.2792932491966822,-0.10421318764866443,0
71,-0.18790956324130564,0.04410158187071602,0
72,-0.07390134897025076,-0.06465022395875071,0
73,-0.027417240646043107,-0.22126484039468614,0
74,-0.07255516851252611,0.19818881877561645,0
75,-0.0018667272097009449,-0.16159963304135966,0
76,-0.23232932572481865,-0.022819001841336596,0
77,-0.0898802949635202,0.18030323308009003,0
78,-0.02657488959140378,0.036264047120352,0
79,-0.0028265238055693396,-0.08701520181349186,0
80,-0.15636695244205298,0.0689632628785177,0
81,-0.17255375230508874,-0.010311700608588992,0
82,-0.023100728159566215,0.025663378859870384,0
83,-0.12550043765597477,-0.24307668533646826,0
84,0.043989375569799025,0.05425076499625262,0
85,0.06491261665052618,0.040965900147428555,0
86,-0.04136131145404899,0.16044834798163063,0
87,-0.2215688517947954,0.15909838628896403,0
88,-0.02704990012164707,0.037524019477633175,0
89,-0.1454333266140395,-0.030508954314933754,0
90,-0.02382107151464235,-0.01584183756109809,0
91,-0.09282757785440819,-0.1016143816989805,0
92,-0.17052186506114128,-0.026615813364434287,0
93,-0.1112432280780867,0.12077283223086002,0
94,-0.06408068504965879,0.1334628495452874,0
95,-0.10137284109902932,-0.034719418131165705,0
96,-0.10482434790352592,0.10928226884505092,0
97,-0.0777216815766286,-0.0136815186997193,0
98,-0.040508327094806056,0.050994974655013944,0
99,0.030517385468334875,0.17445392024244205,0
100,-0.062480659991848826,0.039225695033121136,0
101,-0.026360205109025217,0.01997095105617374,0
102,-0.09785275141098852,-0.06247056505713627,0
103,-0.047077723476314635,-0.06319002793658335,0
104,0.023497666952680265,-0.02185333082810124,0
105,-0.08624918151002625,-0.017574258558608422,0
106,-0.0028096653291077326,0.048430114029739006,0
107,-0.07739114802407032,0.02226786997972086,0
108,0.1805080944490652,0.011629427328783894,0
109,-0.02980338726434444,0.10842711806742004,0
110,-0.009244674048332348,-0.11313484502060517,0
111,0.1240660211785238,-0.06067164576701469,0
112,-0.025392794758996376,0.23361259403751317,0
113,-0.09388491233554343,-0.004913490635646283,0
114,-0.047201673860258385,0.07672385304533898,0
115,0.07876494762501698,0.031074719463914574,0
116,0.1903287869455402,-0.003640671047997303,0
117,0.14802021694176692,-0.03260806346671923,0
118,0.009616639422620279,0.09925165491813472,0
119,-0.19936200264820284,0.10563019931679471,0
120,-0.05725449053460621,-0.012251129166127007,0
121,0.000599820585868719,-0.0998279388488302,0
122,0.11674929466949284,0.03226601577892051,0
123,0.2032193587109893,0.017278960424441728,0
124,0.3950720137892659,-0.302550105722499,0
125,0.2284669141271481,0.26839916699347355,0
126,0.3732429221289387,0.37846693279157567,0
127,0.5796042487994963,0.6949679857460509,0
128,1.0836152659237104,1.2135198041822373,0
129,1.6609300778689386,1.4069709565306285,0
130,2.148181383602427,2.042360658191486,0
131,2.8274767032592147,2.9097200396588567,0
132,3.6200276948584853,3.7672594728136066,0
133,4.593685524169111,4.713543946347068,0
134,5.461482819380652,5.418999876553049,0
135,6.179665149480363,6.283162370501201,0
136,6.567719822165779,6.872480060339001,0
137,7.186209688180402,6.957111331283035,0
138,6.95845956039591,6.931544447305213,0
139,6.49390947970495,6.308505638993215,0
140,5.755497279983515,5.506064604682914,0
141,4.378491138906756,4.319827729471123,0
142,2.966574872010763,3.0183244092520427,0
143,1.4754956834278494,1.630572269827189,0
144,0.13123168246693084,0.09711950761079566,0
145,-1.257756886487331,-1.3890938346293193,0
146,-2.251371551575799,-2.349697175572525,0
147,-2.895601103828211,-2.931769574371052,0
148,-2.8531299902770284,-2.8437870048699443,0
149,-2.8391827728498056,-3.0352328137148703,0
150,-2.3526648100507086,-2.3780324738435317,0
151,-1.748306551107869,-1.6329487775759925,0
152,-0.6837567280221224,-0.7246907354640942,0
153,0.033045580568021315,0.1513306306269583,0
154,1.10758156100814,0.8821342885311199,0
155,1.411372079632358,1.2821569470700849,0
156,1.3690685311666038,1.4802210704750391,0
157,1.5288066077621556,1.4966518237005284,0
158,1.2629120344068754,1.3853996317587849,0
159,0.9179708079058637,1.0646679337169787,0
160,0.38465071969794484,0.26066065665821636,0
161,-0.16123661900262154,-0.13524734578812775,0
162,-0.6983255296699777,-0.4319186748840319,0
163,-0.6159687826201927,-0.6569816237924031,0
164,-0.8351041348284307,-0.836063932298417,0
165,-0.47921754799929994,-0.606176289464236,0
166,-0.43451750697057,-0.43612614148236045,0
167,-0.257726402788629,-0.220889510845579,0
168,-0.3387809917791876,-0.09297308360683992,0
169,0.11406610010982106,0.2414811210068024,0
170,0.282234969800882,0.21739789646483065,0
171,0.17137817828485366,0.2700198515043526,0
172,0.32669632553043576,0.16327391821809595,0
173,0.26278359779119753,0.26393528430803853,0
174,0.008942989090439363,0.2576622999878317,0
175,0.08352841960592262,0.3325580765441436,0
176,-0.08913009192030301,-0.002949808928675115,0
177,-0.1296112279625062,-0.02459422607274197,0
178,-0.1750286861535894,-0.3390456938650033,0
179,-0.17184222699735863,-0.12084406216921295,0
180,0.06469636494891347,-0.20290132222648086,0
181,-0.05964296289455577,0.05819343182787155,0
182,-0.1544539462518564,-0.26347372173684097,0
183,0.02875714824422896,0.015238029524883845,0
184,0.10761164411264311,0.21927593979322565,0
185,-0.012263074664124761,0.02414885933889373,0
186,0.17492392206721613,-0.04743489199633244,0
187,-0.01676422448433278,0.044841559978611334,0
188,-0.03934556614454208,-0.08860195466878057,0
189,-0.08087609984870127,0.01298141256648992,0
190,0.08869247745550576,-0.013576417537995124,0
191,0.2595136228003503,0.1316705339946475,0
192,-0.12214133970641093,0.025991124500919786,0
193,0.03942331014507282,-0.10095005897153517,0
194,-0.0366961837606651,-0.0897790308894087,0
195,-0.19280177048182534,0.20686363591633905,0
196,0.020122635015614676,0.1357238914213543,0
197,0.14452109748232467,0.01428984521932538,0
198,0.04681331597319304,0.09138835356764588,0
199,-0.05522421025156455,0.2107672282841049,0
200,0.18467811812203455,0.005680649475937562,0
201,0.06109489959177241,-0.021859932854019642,0
202,0.02041483258401998,0.16186841622588283,0
203,0.11561509348374102,-0.05540998374500409,0
204,-0.194411047425281,0.1134526969613582,0
205,-0.16381166843996312,-0.13978757831278943,0
206,-0.017701958360458337,0.05653162784762675,0
207,-0.07683513018568279,-0.028810517103333308,0
208,0.021727504740535385,-0.15653922633882017,0
209,0.07860122035991896,0.0365597560407493,0
210,-0.01769395588041391,0.15605690469015604,0
211,-0.15483551335597667,-0.00020524112588536338,0
212,0.1122861907362395,-0.04351381579762646,0
213,-0.04988572249985429,0.011009205916673304,0
214,0.07555323384009921,0.027298076478627333,0
215,0.13928950925675196,-0.02795726072366253,0
216,-0.12104388397984732,0.08383788035713949,0
217,0.24122747596059674,-0.14636326118712956,0
218,-0.055294030142732216,0.012239878705785825,0
219,0.04452756875203918,0.002398224556222675,0
220,-0.014119960543572806,-0.08786313902996663,0
221,-0.047854270638955906,0.03184304346424249,0
222,0.06598902143378263,-0.08472072089771322,0
223,0.16088004917534518,-0.15627380658944587,0
224,-0.10851880531816377,0.09724190881867247,0
225,-0.10652854974856506,0.028202919630731082,0
226,-0.04446514366164022,0.10123637064781305,0
227,0.09604861352754727,0.1223842025565014,0
228,-0.04566945791452523,0.0031482092379358745,0
229,0.09636260561388077,0.2311504878852934,0
230,0.06706757543649067,0.0239033963496113,0
231,-0.014179792005179132,0.13270560337008186,0
232,0.11807042325729075,-0.002327062673798563,0
233,-0.013499269218506473,-0.005777579904715444,0
234,0.06644204131608981,0.10236495400581314,0
235,-0.1115777217717353,-0.012935749785303416,0
236,0.11090461394171158,-0.009315277579524108,0
237,0.017570030493110726,0.0152489643903842,0
238,0.01555793249621685,0.03574796623991993,0
239,-0.08825894650605152,0.11071674381574084,0
240,0.167450194927451,-0.024753959402717966,0
241,-0.032210349222939666,-0.026879419957906915,0
242,0.06750423119998566,-0.10592195261104627,0
243,0.030066067559389818,0.013222483479699655,0
244,-0.08709192358368069,0.04885296330557664,0
245,0.12068542021852033,-0.23066888543658431,0
246,-0.02756761039995491,-0.03344987030994717,0
247,-0.20616696894443115,0.06085154808460219,0
248,-0.032442713131020096,-0.02364153812972644,0
249,0.10412854921343523,0.1080579561609306,0
250,0.27696258110024674,0.147857751757534,1
251,0.7762758570815335,0.2217030931431705,1
252,1.5480453673822436,0.5526119813165343,1
253,2.8043219691479147,0.8253725858143133,1
254,4.311463468787102,1.4643087053666415,1
255,6.085765534205929,1.8218621441218712,1
256,6.803200128366635,2.5131113159574143,1
257,6.487972270177013,3.3941627941658434,1
258,4.428237632271878,4.150162228841412,1
259,1.8817120161140264,5.206162177594595,1
260,5.991386807220745,5.968993621095457,0
261,6.662859461019736,6.616108557084267,0
262,7.009831769019868,6.897323748725904,0
263,6.737833732766297,7.0098828183387125,0
264,6.495616840125229,6.63987308884591,0
265,5.893291633392342,5.983719376309337,0
266,4.944051410383001,4.959076195108668,0
267,3.4547083047459517,3.5417361737107047,0
268,2.224734727110759,2.1032417903352107,0
269,0.5149457810835507,0.744416514433187,0
270,-0.7805476634754466,-0.7625363061097967,0
271,-2.078151160317004,-2.018743067073081,0
272,-2.710180788318767,-2.700516944044606,0
273,-2.8330666832141396,-3.0561877190779874,0
274,-3.038021139838915,-3.0332705581654587,0
275,-2.3354136490350434,-2.3611639740605925,0
276,-1.8634099886059763,-1.6917632661328836,0
277,-0.9993389220841395,-1.0878353775876568,0
278,-0.17227816011016342,-0.3199778689579751,0
279,0.5498231942007413,0.8475778982746703,0
280,1.3477730436574284,1.3317292706818133,0
281,1.453789517662301,1.4813150811314348,0
282,1.4048924908041027,1.3722840241116496,0
283,1.3356069809333155,1.3487756233338928,0
284,1.1461693439590634,0.9956085449162486,0
285,0.5431237157730473,0.6345317636656246,0
286,0.12966241458873928,-0.0316008526185132,0
287,-0.21249019672629946,-0.4313554291449494,0
288,-0.4578858715231081,-0.6074739733935272,0
289,-0.6342751894588159,-0.8234472488141236,0
290,-0.8646260419645555,-0.7681660892166541,0
291,-0.739012840789469,-0.48356448705442456,0
292,-0.44186485357951866,-0.3079596582539085,0
293,-0.10435969135922607,-0.12715455813516913,0
294,0.008446809191450395,0.1521296022161799,0
295,0.1969575557946942,0.2647589153314651,0
296,0.20672092092110644,0.10011200339528531,0
297,0.291877246706315,0.373556713862166,0
298,0.23078213160924269,0.34621353673437133,0
299,0.11344686577765545,0.30068309539529875,0
300,0.11744170476776317,0.3323996627475364,0
301,-0.02432686471301207,0.17099332048070165,0
302,-0.10466392624838328,-0.0515135738363761,0
303,-0.08809531654721135,-0.09859924497299345,0
304,-0.10774441705984293,-0.08772956192098523,0
305,-0.16310050225582937,-0.20863548015134575,0
306,-0.13152498401381918,0.011276685718136212,0
307,-0.09878825661797999,-0.20422859216989847,0
308,-0.13891826707239507,0.0431794180012456,0
309,-0.18569242608872424,-0.04472553257746066,0
310,-0.1203942125846614,-0.12846465031552168,0
311,0.027270207713782454,0.12382305485831138,0
312,-0.06783157557602272,-0.09886919683202551,0
313,0.09744916467637667,0.044496255054658054,0
314,-0.09361606725669198,0.07631841941284959,0
315,-0.13282639432268575,0.07173196690225161,0
316,0.047859129724395495,0.01895347389845647,0
317,-0.08093232093411146,0.012593615234196644,0
318,-0.18623720931499663,0.08021437575389073,0
319,0.017670886427335636,0.09290519509100044,0
320,-0.04441493838685363,0.04126235211081804,0
321,0.14468005187766048,-0.03538395826951319,0
322,0.0037437303616860863,0.10751055259986719,0
323,-0.032050282306858247,-0.02025351982014604,0
324,-0.09677902031343653,-0.0631142153266028,0
325,0.2068167342653985,0.042835458524025476,0
326,-0.13533840494703456,-0.026701793606446957,0
327,0.12159092065301591,0.05432462284948167,0
328,-0.09937007483143862,-0.06888766106520038,0
329,0.03636575220848415,-0.1413685146896957,0
330,-0.0957309838175819,0.19551670970137627,0
331,-0.0396849709415334,0.05419919922280262,0
332,-0.023694239311210716,0.1743406082631686,0
333,0.05117766077491044,-0.06502870211150183,0
334,-0.2592802362990147,0.0362890839078771,0
335,0.15008364622322198,-0.015139844036990266,0
336,-0.057748870647105544,0.12741425860585687,0
337,-0.13203695526293174,-0.08122599718770589,0
338,0.15394467572826226,0.010999797119894841,0
339,0.11060565968873315,-0.012833298119680111,0
340,-0.254837001003308,0.03273763059897877,0
341,-0.1616291262272769,-0.11177109101525723,0
342,0.07479554793535066,-0.0964709572028284,0
343,-0.036821752528026844,0.061044962193651735,0
344,0.028170139481580817,-0.08142689166868172,0
345,-0.020325161889970633,0.026806437668650374,0
346,0.12249079224222141,-0.07300487495769989,0
347,0.1484589764991381,-0.11937567130163572,0
348,0.07379160288830199,0.04559712282279726,0
349,-0.023078206520502048,-0.0783868557916553,0
350,-0.08015783265821,-0.08720984275033204,0
351,0.13256033153754748,-0.3751081535916317,0
352,-0.03723444972720755,-0.05807764080290864,0
353,0.032117371747768055,-0.10747132600659218,0
354,-0.07730095064353157,-0.030701295391510824,0
355,0.0041187390402815365,-0.31429320134492633,0
356,-0.06064501886799403,-0.020693702848508046,0
357,-0.1194001959660959,0.09161000777533768,0
358,0.054302311368535604,-0.02734247760691492,0
359,0.11760833457892995,-0.017474295625899566,0
360,-0.1283686239047891,-0.009311705661583312,0
361,0.2054064811271039,0.06858958982944742,0
362,-0.08337698164015893,0.03578960544503426,0
363,-0.16023327949473665,0.09065062487908343,0
364,0.04394216610880855,-0.11030494407561633,0
365,0.11221381674330642,-0.12506140534233218,0
366,0.00732550214656008,0.12499529007076697,0
367,0.012648891569518253,-0.047337785440183695,0
368,0.09423063431345044,-0.15654527748147826,0
369,0.05591563541941625,-0.019286579303116367,0
370,-0.11708272771717754,0.07752741293556442,0
371,-0.0483272084151812,-0.2099989591775273,0
372,0.09679997016356129,0.02474381958298582,0
373,0.04255114430192134,-0.001843209724800527,0
374,0.15411344661982346,-0.04187939104597063,0
375,-0.017041664803353868,0.05905890014341536,0
376,0.2832381543029314,0.1771884718869565,0
377,0.30125328062614926,0.3305895067552827,0
378,0.7212563178414334,0.47404924636124823,0
379,1.1706688401720944,0.9839689901406314,0
380,1.7512245907226378,1.6874623386747105,0
381,2.40638471508938,2.50254110035841,0
382,3.2233240304133925,3.0052202033273576,0
383,4.057551333056238,3.7830602197929433,0
384,4.86767249115487,4.882285563573914,0
385,5.699797963577798,5.74011384565544,0
386,6.1655251105358255,6.2557318152246415,0
387,6.948902775489305,6.700044329455728,0
388,6.9504420988863025,6.741088838934241,0
389,6.871381410452502,6.75977910089888,0
390,6.258548900954152,6.283875439307401,0
391,5.390016675093485,5.162960165160133,0
392,3.8983837983526164,4.054911881953746,0
393,2.78311067739278,2.6698671355734644,0
394,1.1711703756779077,1.2041270675194042,0
395,-0.27697689273696874,-0.29185852254482475,0
396,-1.4304286895822207,-1.564929085409468,0
397,-2.413531331008841,-2.239235953765005,0
398,-3.053797602755118,-2.738438095946098,0
399,-3.11468756753972,-3.1544772948889537,0
400,-2.551616796779765,-2.7714358789021207,0
401,-2.264464358707681,-2.103618123190662,0
402,-1.502701719844152,-1.4502039942727931,0
403,-0.4106097988499647,-0.4855570417033555,0
404,0.46775220864881634,0.41287506923178086,0
405,1.109701836513266,1.0117586880788723,0
406,1.3102889502641781,1.4017660944437056,0
407,1.621877510817202,1.4733501643146119,0
408,1.639768670839535,1.514900811799586,0
409,1.207717796900462,1.3103063654458147,0
410,0.9560646682042466,0.6886970726520737,0
411,0.4505918693033304,0.3885579172856789,0
412,-0.1829201663231773,-0.2986335658106374,0
413,-0.5613066672711506,-0.5224949311601907,0
414,-0.7288635575776412,-0.5896648556660118,0
415,-0.6307949447283535,-0.830047996382884,0
416,-0.622141115986932,-0.6772422520940861,0
417,-0.40013480807352336,-0.4907260116261446,0
418,-0.19070247512946242,-0.36807026863370484,0
419,-0.33915612438219844,-0.2553354504735228,0
420,0.21376431952504754,0.05493257038980799,0
421,0.19029443651313455,0.2724568635044707,0
422,0.007696362414614133,0.5165688862097257,0
423,0.472876005620223,0.5403518996284657,0
424,0.33933843294812455,0.20650166597087666,0
425,0.1971858391336268,0.022562863434771457,0
426,0.05440329209542047,0.19103463653071823,0
427,-0.014277934154630781,0.10104780691388518,0
428,-0.28204643347427993,-0.11104131757657425,0
429,-0.07530909213998299,-0.08140725847936739,0
430,-0.20053567039717624,-0.12221735163828125,0
431,0.026987959884965343,-0.059561818718219015,0
432,-0.1578596874282846,-0.23087959965405175,0
433,-0.08331235924017052,-0.0638390427145292,0
434,0.037103600458413294,-0.002915641904539322,0
435,0.015054141862135436,0.0907384476464495,0
436,-0.0652355836811938,0.012682659920639872,0
437,-0.02969601704180317,0.02891321645968024,0
438,0.1390463973543036,0.08706785442676304,0
439,-0.005147794442340953,-0.19186925334090155,0
440,0.11716033741203317,-0.15403060968081914,0
441,-0.06049173885308192,0.041488444695031886,0
442,0.025516356000600256,0.14885289734379725,0
443,0.03055642028906761,-0.24938221708144886,0
444,-0.08547841363629316,-0.03478258014926505,0
445,-0.16534600944173125,-0.13541147542592985,0
446,0.02407457181056607,0.04502613176813634,0
447,-0.14355113596488805,0.10967461944848417,0
448,0.14652232816866964,0.10963910111259796,0
449,-0.08038178177854043,0.14216930218628757,0
450,-0.1308881994118714,-0.12657334099004525,0
451,0.02633677050280774,-0.2069697585142879,0
452,0.11294285647988356,-0.06855002673290757,0
453,-0.11616072642491906,0.10474341677387176,0
454,0.029524811837169693,-0.16989195951640804,0
455,-0.10505746703118926,0.05839591054818763,0
456,0.03418033492902193,0.18334514235900648,0
457,0.12591516197831018,0.0710097260849044,0
458,-0.11464321114284498,-0.03650946327980589,0
459,-0.03814338681128755,-0.04613743669145138,0
460,-0.07868962731357192,0.135371956384246,0
461,0.2364288176640922,-0.09938141419929222,0
462,0.009303482625540437,-0.14806908332596627,0
463,0.2265044650545686,0.04341197820770563,0
464,-0.12435589291473176,0.00624029268021112,0
465,0.03076526253657065,0.09942108639281373,0
466,0.2620556015260964,0.05635140313189925,0
467,-0.25132777943163515,-0.09229314767505069,0
468,-0.00980964606708579,-0.004274018553886659,0
469,-0.11555884217201844,-0.03407026840275904,0
470,0.0436808039928852,-0.0713981418795215,0
471,0.11319394875066197,-0.13932697579644462,0
472,0.22851304250887716,-0.05465243019366133,0
473,-0.0071599072128267546,-0.03011220207665163,0
474,-0.1594891978393739,0.1211697347541429,0
475,-0.058677955021783405,-0.1066168882870557,0
476,0.05158372151197215,0.2108247009517972,0
477,-0.1627450167455323,-0.05270412928713052,0
478,0.04755319287111745,0.022927755929570012,0
479,-0.12160349996377143,0.09079091106119867,0
480,0.05094910462971076,0.15604404599544774,0
481,0.13145793487758714,0.12313125366771319,0
482,0.28885318957229206,0.0699674337490584,0
483,0.289147268274299,0.22012441881182113,0
484,0.16764181199210423,-0.01817085599827315,0
485,0.015016752833373212,-0.05935161587707841,0
486,0.02672934701392,0.1415392479038457,0
487,0.14999601629149537,0.0532679760950568,0
488,-0.01611669098345838,0.044907707640577756,0
489,-0.018067707846290148,0.04679078424936026,0
490,-0.10611936083557981,0.053176032975259475,0
491,0.13840795773738773,-0.1412083890894556,0
492,0.06202626254448615,0.04990111456033572,0
493,0.1178354096494707,0.10591532554423061,0
494,0.09813384683524264,-0.03054252964178728,0
495,-0.14272184090859363,0.09571972567320056,0
496,0.07572980047551119,-0.09129983421727195,0
497,-0.10141630317755404,-0.01176772497573584,0
498,0.050969304707205676,-0.007446949904675843,0
499,0.04136525208096539,0.12506319623143386,0
500,0.1948856250747796,0.17271415995856834,0
501,0.052767051297669995,0.12658461025547293,0
502,0.46204346836845434,0.4436512982495416,0
503,0.5882951445069797,0.5974126080241596,0
504,1.0682349731233578,1.0282347146799553,0
505,1.492215467242984,1.468275401511508,0
506,1.9063654381358823,2.015774833524449,0
507,2.613908519416307,2.6449468441295605,0
508,3.770695626461195,3.6162217583551133,0
509,4.372378394669338,4.507991813352811,0
510,5.372998483081925,5.3606380452023545,0
511,6.113942365631323,6.079057728809278,0
512,6.613684936252723,6.690929026790895,0
513,6.7288274737927045,7.15447154976766,0
514,7.032085593835,6.932875605760311,0
515,6.417549386530665,6.50039748265824,0
516,5.5281378318187055,5.770400251794204,0
517,4.591327514007242,4.396977477666566,0
518,3.3403837697594994,3.3209540307716905,0
519,1.9128557213863828,1.8535664618046714,0
520,0.30712243901022795,0.4690095647761494,0
521,-0.9626460523386018,-0.9485290311184648,0
522,-2.1160331769892644,-2.195322009229857,0
523,-2.72291305284046,-2.7908613850106727,0
524,-2.9332043894956294,-3.0066135834382637,0
525,-3.0959488938309616,-2.714023693573976,0
526,-2.298102900531876,-2.3326808124846825,0
527,-1.4821988484920996,-1.6101624330395163,0
528,-0.714121828788347,-0.7334102524874337,0
529,0.025818535056638985,0.036905990919066683,0
530,0.5549092156041635,0.9686540335583835,0
531,1.3967696339468159,1.2486236705080398,0
532,1.5794829961208094,1.6692100777617223,0
533,1.542110626924571,1.675049959547174,0
534,1.4670262266691299,1.2658682084077475,0
535,0.9391949456390523,0.887360545073225,0
536,0.4968229559468867,0.4518021802137551,0
537,0.06216997172395922,-0.044854293866426836,0
538,-0.367755292186527,-0.34337186263156466,0
539,-0.7134134011139768,-0.5963908527107663,0
540,-0.8613856190766094,-0.669828733407132,0
541,-0.7545012868352571,-0.8974693101331112,0
542,-0.5391329163533409,-0.602605441935429,0
543,-0.4692312144028761,-0.47209718920777766,0
544,-0.07565134626824031,-0.0664190298442708,0
545,0.02236260374276794,0.15250151296079945,0
546,0.0923898470770787,0.07751707222946759,0
547,0.28075414926203657,0.35893241274148824,0
548,0.17577107792388805,0.3322184795312287,0
549,0.26045261231524464,0.22810858793097094,0
550,0.36148401100643546,0.2594271506785396,0
551,0.12479109358663965,0.24737697203877662,0
552,0.031817081483792364,0.08313977388736381,0
553,-0.01782918213033325,-0.02874812267344043,0
554,-0.31330865706935557,-0.05369452328582297,0
555,-0.06247735819819849,-0.029279197645987146,0
556,-0.03932117535999341,-0.14194806555814052,0
557,-0.01800657742038092,-0.008850482034885324,0
558,0.01405916566896942,0.06594294737900545,0
559,0.054294665165830244,-0.03350314290270623,0
560,-0.10391867225336521,0.04013465788178212,0
561,0.13124279241196735,0.05801340176425192,0
562,0.04289463069768176,-0.09098981994724226,0
563,0.17127165179521564,0.0003790570894703846,0
564,0.03098272926222871,0.014695295868968542,0
565,0.072322629041295,-0.14746097291550922,0
566,-0.10877877664792172,-0.003688597500577328,0
567,0.02081214107164527,0.08114481223553033,0
568,0.0955269361715316,0.07695978683251326,0
569,0.14594251213500836,-0.10412847586844441,0
570,-0.04393181461571342,0.07634521644395778,0
571,-0.1147618964309303,0.008425675673472325,0
572,0.01881209759836115,-0.05385787830344813,0
573,0.1277359941051608,-0.06421998374427657,0
574,-0.039178912737973554,0.03766263476171288,0
575,0.013824240887455735,-0.0017630527922160373,0
576,-0.22521545816244426,0.0008562988469183865,0
577,0.004222557177885887,-0.10985796166734203,0
578,0.04273215393097225,-0.10183851277791535,0
579,-0.0204430819318729,-0.16265077557100496,0
580,-0.013324925497477253,0.03143951821027533,0
581,-0.0301181950181948,-0.07693478534598984,0
582,0.10878978608368846,-0.06389981787362756,0
583,0.033725956963832945,0.015439329879695797,0
584,-0.04827795671823988,0.01771747216731827,0
585,0.25079543731097337,0.0717833608048752,0
586,0.2025945959719506,-0.19902127753923363,0
587,-0.04255117309824743,-0.14869801737886496,0
588,-0.019593437750126563,-0.004461812351233934,0
589,-0.0008288296926831451,-0.02975648658930902,0
590,-0.0468357728136032,0.05756675035472703,0
591,-0.094066288659701,0.09435727675916117,0
592,-0.010840609522150078,-0.18999043782017838,0
593,-0.10601205016344993,-0.08772717998467965,0
594,0.044564444412934466,-0.02931112814705476,0
595,0.13027724062582394,0.07136887927165232,0
596,0.04334107454636177,0.15708748804235384,0
597,0.13246200343820425,0.1587557613584986,0
598,0.032415401368878355,0.11863286468835434,0
599,0.053302960542317195,-0.06954627060257554,0
600,-0.14729080819696205,0.14112022883095093,0
601,-0.04174006496555881,0.015047034975332031,0
602,0.04833165419500755,0.055980853008637824,0
603,-0.10676679768295425,-0.05855840719961666,0
604,-0.07437922422281996,-0.10470030087530088,0
605,0.11938578010995846,-0.0785136848962718,0
606,0.035795348646870485,-0.14370828285721676,0
607,0.13169931264095594,0.05836051765848764,0
608,-0.047654381563884254,-0.18628415612007382,0
609,-0.09306453724528449,0.039568025805207636,0
610,0.08019776334611582,0.07949120352175715,0
611,-0.1328737952231023,-0.08752974646957855,0
612,0.10487981554846677,0.004760788924924488,0
613,-0.26466996762964573,0.05134735062742828,0
614,-0.0607990390993935,-0.012324325749175143,0
615,-0.005427458241641283,0.23013296282277784,0
616,-0.17321449835094632,-0.04633136840201746,0
617,-0.07808143349013885,0.042601154521344185,0
618,0.011772210348995086,-0.19932462110179708,0
619,0.1575804153817813,-0.0667436943833194,0
620,-0.10758135681607739,-0.008953540502267137,0
621,-0.07239324182060582,0.1468360104034537,0
622,0.12765102802296588,-0.1220634573096204,0
623,-0.08422632910324276,0.13646758750903018,0
624,0.1303603777721813,-0.09680397049354608,0
625,0.10210761717276809,-0.10591568808320201,1
626,0.2555174856127463,0.3278525268148894,1
627,0.18945247738017915,1.2711505883996777,1
628,0.34934009462525006,2.25351329241769,1
629,0.7503039661703543,3.9049996933482705,1
630,1.1286125535134794,5.505613312895876,1
631,1.6580972865518058,6.826417745212861,1
632,2.4485223196087995,6.862456750067596,1
633,3.3048990098229876,5.481932404286787,1
634,4.197852108313151,2.8378053403193633,1
635,5.053569550679059,5.002560716472283,0
636,5.806315677476551,5.775828050189363,0
637,6.413558977789407,6.377065578463239,0
638,6.741341046414902,6.896673811797653,0
639,6.900410992893014,6.890597873956813,0
640,6.58004511018529,6.661882306350706,0
641,6.092195123311522,6.196944965821381,0
642,4.903482941220046,5.082358732434231,0
643,3.8658011393135783,3.7430496516238865,0
644,2.4075687377204513,2.4121297524407215,0
645,1.0289785755410572,0.8967283406196287,0
646,-0.4721231403144114,-0.689867607020272,0
647,-1.65577225315085,-1.6749451002688451,0
648,-2.553811564192441,-2.514649592377222,0
649,-2.9593277907448368,-3.040396596507716,0
650,-2.9883115196185157,-3.072319239693897,0
651,-2.4834678420465663,-2.661733723791703,0
652,-2.0886479190956315,-2.029021822171749,0
653,-1.2192211832465643,-1.1238515213689393,0
654,-0.3399815517673995,-0.5943659902206312,0
655,0.4300229678297573,0.5646976854233567,0
656,1.1646490145204522,1.1058657484570795,0
657,1.554912484005571,1.5621897488729632,0
658,1.4622472525416481,1.7567870342845913,0
659,1.6761510492047376,1.6252335869648191,0
660,0.9994760432171582,0.9500534454992936,0
661,0.7050476332379612,0.9070248442241777,0
662,0.1765904947939471,0.2701673411999015,0
663,-0.2945596045214582,-0.2722955859623728,0
664,-0.5095313720989934,-0.5853970671978833,0
665,-0.6751907816378988,-0.7740248796654897,0
666,-0.9003080577259746,-0.8487269924619848,0
667,-0.770460040103641,-0.6188874066287727,0
668,-0.6915720028278497,-0.3876685336741456,0
669,-0.3451404269527781,-0.22785457850637,0
670,-0.07705259818641186,-0.021735935788902247,0
671,0.17554165702547386,0.1379802389061746,0
672,0.13086399191005224,0.23521393556268094,0
673,0.2767744468829875,0.3187446331980029,0
674,0.3518615576342913,0.3731618923620304,0
675,0.13692982404056542,0.3963799952384228,0
676,0.24633008106492799,0.21387239062704727,0
677,0.08589859444011189,0.06976126452748371,0
678,0.0710830513681151,-0.10900771769864422,0
679,-0.15924560761179357,0.012832030518212481,0
680,-0.14606851759054001,-0.30408001092896486,0
681,-0.13207994128141018,-0.307580785476849,0
682,-0.10291013028273097,0.09639539716943027,0
683,-0.16500936078823247,-0.07584122039019212,0
684,-0.07214467796292869,-0.20691099417426073,0
685,0.003899411457711408,0.15734192538867872,0
686,0.03814016136212406,-0.011943116599813057,0
687,-0.05192294271115224,0.009918855011024106,0
688,-0.1992845823834412,0.014653794469058824,0
689,0.04467697115189694,-0.018909901905487723,0
690,-0.008003543469318423,0.05938642538021659,0
691,0.0765492244537285,-0.16418374549363557,0
692,-0.016151940286192656,-0.02982192101114316,0
693,-0.10744110567574247,-0.07808668957370239,0
694,0.00165498104105272,-0.021697054644567792,0
695,-0.12467484592073617,0.12948731107165076,0
696,-0.020766920992553624,0.04953126108449882,0
697,-0.08939266752661088,-0.10564350994427789,0
698,-0.1498196257008061,-0.07556450478515676,0
699,-0.18044190076429745,-0.2319098781123148,0
700,0.04632245092593995,0.10273779717688081,0
701,0.13727966174254852,0.03343302209496598,0
702,-0.03669277551113716,0.1142879574564698,0
703,0.12292959992542657,0.008941545406035579,0
704,-0.07661638649637541,-0.1604195911349217,0
705,-0.08948469691810938,-0.03984256315992758,0
706,-0.02758949518243575,-0.21649973881283047,0
707,-0.06669271946516547,-0.14062941462159384,0
708,0.0423558286305799,-0.019882478232604986,0
709,-0.14401798393508475,0.07115647629068102,0
710,-0.08436283944815859,0.1352520390423673,0
711,0.04318364788736955,-0.05136704444818004,0
712,0.10102515044549853,0.05724523275206969,0
713,-0.04697779028538032,-0.11339291523575568,0
714,0.0313995341194726,0.02272809296449308,0
715,0.1117992099683181,0.09462528466630472,0
716,0.025317293636539825,0.15837278612428943,0
717,0.08150599995098373,0.029254817726482665,0
718,-0.01712542000480807,0.020406915349757207,0
719,0.0842895479144225,-0.14639154229705378,0
720,0.1438314188544781,0.148982416997434,0
721,-0.017004387037517818,0.002536895606446975,0
722,0.07974776540036818,0.035255660165706984,0
723,0.12695110526826986,-0.09148727831654435,0
724,0.00196793011154871,0.0011473218636656522,0
725,-0.04070043193446079,-0.13248332379722752,0
726,0.027746330964525435,-0.0619828554965803,0
727,-0.1129751386064752,-0.08799038365070247,0
728,0.04430529878635227,0.10042780243950321,0
729,0.23439520629271826,0.06187678092453284,0
730,-0.03492562129219314,0.005089575918700464,0
731,0.0665772518813969,0.07978520023431555,0
732,0.08268484559889645,-0.13006359212807578,0
733,-0.03702515635866037,0.20505569749265512,0
734,0.21723421100215257,0.04085436688776844,0
735,0.06098363209162053,0.06814281835266969,0
736,-0.0423208668293484,0.08268942073822427,0
737,-0.15778056146713337,0.0879993155056875,0
738,0.055766381913653,0.006606842548665864,0
739,-0.009466874023484222,-0.18970318860312194,0
740,0.06615808019732417,-0.03724837094024932,0
741,0.1049840303531787,0.14969370781554978,0
742,-0.03596962164113913,0.03375030534739219,0
743,-0.050312578288592966,-0.07439255394729495,0
744,0.06596801168296261,-0.09474926148058584,0
745,-0.05780819755499663,-0.04041330047629867,0
746,0.0025308620360581934,0.10813601223856302,0
747,-0.022390766198658495,0.10560507549208374,0
748,0.07046999347948368,-0.04105677556219081,0
749,-0.0690282554354887,0.09248734878755477,0
750,-0.009643646956672525,0.01204830725137332,0
751,-0.03226025595910961,0.08120866665788247,0
752,0.10892294652130281,0.22343856081486346,0
753,0.5431594195631454,0.33915494519459344,0
754,0.5940305935436903,0.6039575729212372,0
755,1.1575837240798812,1.1758569966724437,0
756,1.7036788401769418,1.5038193188980922,0
757,2.1620302509460574,2.1776115101447244,0
758,2.807068712488871,3.0217879818490165,0
759,3.668528280490957,3.726198996109639,0
760,4.471805846115537,4.6466606199331695,0
761,5.463157731376916,5.51286810379871,0
762,6.090034230458524,6.066482952083141,0
763,6.713741269902125,6.771699103778495,0
764,6.939720789781287,6.913226662157146,0
765,6.754776279296199,6.750163966033228,0
766,6.450427040894964,6.232314297289243,0
767,5.415444255671047,5.52055062558257,0
768,4.2705350161990365,4.465997344473817,0
769,2.807974899287617,2.9042957680555355,0
770,1.423411833445847,1.497605443482007,0
771,0.067369463665423,0.026491119616029544,0
772,-1.2944005376956729,-1.3094906505129331,0
773,-2.210030834812355,-2.25686078850677,0
774,-2.943796096919324,-2.8746812862343543,0
775,-2.843744071164648,-3.0868822012730983,0
776,-2.796509115910695,-2.7735506106598202,0
777,-2.4715460968442584,-2.398628963718303,0
778,-1.5595664002636065,-1.4981469998541295,0
779,-0.713733156203068,-0.7771887810283262,0
780,0.12953882355738497,0.04546873727010947,0
781,0.8639997957245703,0.8406386125965564,0
782,1.4262891199842282,1.377496284191743,0
783,1.7024667962643543,1.7850761371169777,0
784,1.7572291619590776,1.4871248553410807,0
785,1.2019842797037676,1.1980825245077045,0
786,0.8243928990469256,0.868386494235945,0
787,0.29753487149005947,0.40438657596570193,0
788,0.0487079808011975,0.03522692308477448,0
789,-0.44661045755325945,-0.4872343546697763,0
790,-0.7819201624915144,-0.709777950522497,0
791,-0.8104186321125484,-0.6857355922964783,0
792,-0.6515098570107285,-0.8548204591447548,0
793,-0.5058199601727065,-0.40459043196147176,0
794,-0.44065346711092923,-0.3888201958645032,0
795,-0.1986849648961049,-0.007120465974780332,0
796,0.04187716234567505,0.18791520091438246,0
797,0.23955863449212417,0.2052634705800006,0
798,0.1547543847247898,0.31813304481161164,0
799,0.39540238114724724,0.4613709351810048,0
800,0.2907489971169304,0.4526503589926222,0
801,0.21775633932723798,0.20227861767265531,0
802,0.2818131361870901,-0.0025917188765833404,0
803,-0.3138463589722272,-0.08017213545468341,0
804,-0.0335712267420324,-0.05025656008860492,0
805,-0.17381467038183712,-0.05478542673783546,0
806,-0.08239816545221126,-0.2755758120323394,0
807,-0.23578048398486298,0.011308681871323611,0
808,-0.01674434701747389,-0.035364875246838554,0
809,0.2043979878038184,-0.07244823674773963,0
810,-0.06721752373604134,-0.13919859291818812,0
811,0.07119003175751315,0.04465641010139026,0
812,0.008844452427900506,0.11092998035316341,0
813,0.15151609244062858,-0.10535440738692228,0
814,0.09305818935269142,-0.01392400435802562,0
815,0.02491213049217445,-0.015625203242254172,0
816,0.043043945034682674,0.11469197774198572,0
817,0.04005621435059853,-0.08700760554168138,0
818,0.03971370273167396,-0.09297982392225143,0
819,-0.002254586317880795,-0.1288256395798899,0
820,-0.010453607690738637,-0.1841840050349702,0
821,0.07541546355218502,0.008376832219153139,0
822,-0.1073919134843031,-0.025846159848806387,0
823,-0.015790870645243104,0.10459955526190481,0
824,0.017012057060271084,-0.06242888844180582,0
825,-0.06283423443771866,-0.08440320341587358,0
826,-0.21359505714165142,0.037909009255327704,0
827,-0.06345770328316676,0.12451589446846902,0
828,-0.06710329793619138,0.05926447256302175,0
829,0.03502218976598427,0.0387938268691435,0
830,0.11863374117618929,-0.02791860515145237,0
831,0.16282724396721018,-0.06341026094852914,0
832,-0.14669688481996176,0.0013364708161403384,0
833,0.18072658571049743,-0.2646801411837851,0
834,0.03268969657705083,-0.0922678673992571,0
835,0.017173349757876672,0.14091785661537376,0
836,-0.07176811035469717,0.00028127922065611003,0
837,0.02770508969095653,0.019348512503826958,0
838,-0.038926167608455145,0.08307791807946714,0
839,-0.15486511241404677,0.07324527918321956,0
840,0.09813388461575083,-0.11961817900626602,0
841,0.018353249994910947,0.047573852224432125,0
842,0.040897805661653394,0.010881886697957855,0
843,0.09486246868724955,0.12267254108719806,0
844,0.1510993489973794,0.09165539555619076,0
845,-0.1164848103499349,0.07086332808071047,0
846,-0.010763889316184182,-0.09796416645551019,0
847,-0.030004568724426323,-0.17411505581365674,0
848,0.118928211166713,0.006967357188268737,0
849,0.023593114836733115,0.05558267904004905,0
850,0.09200298650641128,-0.12183466996654135,0
851,-0.008351487956217436,-0.09307091422286135,0
852,-0.176491609331808,0.044348139553142256,0
853,-0.16770215072003605,-0.06567250193547236,0
854,-0.18300069888336956,-0.19582542341042738,0
855,-0.012506620275095562,0.14816056127626528,0
856,0.0024449816105557827,-0.10225026326062185,0
857,0.022889431743432154,0.07127493614509883,0
858,0.1157108408886261,-0.06536395412916533,0
859,-0.15833575634210928,0.08882135182038067,0
860,0.0664359732648821,0.03880264275391995,0
861,0.021022048088898924,0.07939853417637131,0
862,0.11660242680726259,-0.05863676584660847,0
863,0.0891810722527304,0.062386386908405436,0
864,0.093517679836528,-0.0007486478190925438,0
865,-0.04080342171467954,-0.11183297914459885,0
866,0.019971873689034074,-0.033031858487458286,0
867,-0.08820048760257423,0.13041004956878163,0
868,-0.013189064957325806,0.0448017091010541,0
869,-0.0460928302889501,0.018635715252861312,0
870,-0.08093711176255036,0.04821354734746925,0
871,-0.11808336246381879,-0.08393693752134931,0
872,-0.057455039498980724,-0.14279210527030378,0
873,-0.09181659864848461,-0.07428531504373477,0
874,-0.08240600665437041,-0.06066052072978566,0
875,0.08339327346483236,0.05453390984100879,0
876,0.02947539041269518,0.09829121329671127,0
877,0.26870288437214085,0.21476464852969135,0
878,0.3503864910586561,0.2574843491231637,0
879,0.5759765794430388,0.4737427983225633,0
880,0.847537189621427,0.8449535032254397,0
881,1.362105202600845,1.262776577801533,0
882,1.9364286319012833,1.9221330086290098,0
883,2.480931427618072,2.8381543239366045,0
884,3.4396477705724595,3.2980292553979504,0
885,4.443459094868681,4.3021908924770775,0
886,5.21043564960819,5.307698610546198,0
887,6.008688821722235,6.07490300214316,0
888,6.604696509799893,6.441846365454571,0
889,6.8318290425134265,6.959868653598657,0
890,6.970117256334176,6.9624446499934765,0
891,6.640581115012234,6.615552084572001,0
892,6.029473418408317,5.927506300135846,0
893,4.827122794064482,4.732901945794207,0
894,3.5266231692156342,3.5297195762914693,0
895,2.0668640373607094,1.9982733384625142,0
896,0.6570608414520978,0.7191848854396385,0
897,-0.8944311513725548,-0.7826971212300894,0
898,-1.912714855889468,-1.7689900316715224,0
899,-2.787775502617082,-2.602052242059915,0
900,-3.070956227754097,-3.1016205477520886,0
901,-3.043434342351938,-2.9062148667261716,0
902,-2.5938037937348257,-2.5983280302058045,0
903,-1.9225663110241566,-1.9122508731226424,0
904,-0.9848570397459994,-1.0254871881932903,0
905,-0.22196500466904004,-0.07915248506483205,0
906,0.594937715161783,0.6299954275827763,0
907,1.1467215300773415,1.292748561713433,0
908,1.643766655531058,1.6167784075948706,0
909,1.687499211306689,1.676453966830557,0
910,1.462399620685435,1.3717738483930983,0
911,0.9250387859593208,0.7921272158717755,0
912,0.5806795631867546,0.7472475311953977,0
913,0.054742564655575976,0.2864061655287427,0
914,-0.26753256825152777,-0.23291338139281204,0
915,-0.692673191604282,-0.7798489495904688,0
916,-0.8135920184488685,-0.9417454516243189,0
917,-0.643322161121263,-0.7999469434491212,0
918,-0.724413900158817,-0.6819834064688124,0
919,-0.32779286357085274,-0.4607258224097926,0
920,-0.39126350692095935,-0.21585533611288021,0
921,0.06864630399029432,0.17748825196588427,0
922,0.08539853166012906,0.1475564864725683,0
923,0.16938634444107606,0.2672436591642907,0
924,0.2756705928755838,0.31749041602766975,0
925,0.43786942411842955,0.36995497032851954,0
926,0.22937267848739853,0.04020257616128259,0
927,0.10712229017564455,0.09288972704707539,0
928,0.07206813788175756,-0.012221213856303145,0
929,-0.006610376181740214,0.08971589480386144,0
930,-0.0012869395349948548,-0.057581548594250256,0
931,0.1398883852205434,-0.09723896815142843,0
932,-0.024292032284992257,-0.057693112491380975,0
933,-0.09314194039885795,0.005523637427545955,0
934,-0.14362630043984853,0.16090014882605486,0
935,0.10699787905977097,-0.038935974450158936,0
936,0.017919392688877572,0.19561039612559822,0
937,0.09010354488065793,-0.024105099078651798,0
938,0.005126792664820887,0.055737569531392146,0
939,-0.0991023253609955,0.09208465068866514,0
940,-0.0554471626628217,0.12350954544279935,0
941,0.13995840664765502,-0.009991956439282922,0
942,0.12026515742434056,-0.0554022164626477,0
943,-0.05201356846081499,-0.047161867687698464,0
944,0.05314207327991032,0.03170987363721458,0
945,-0.17954301940690098,-0.05566330013966987,0
946,-0.08181021940779905,-0.0016230160693295184,0
947,0.09627859209676083,0.0468721144510877,0
948,0.06522681958410251,0.02156641646063145,0
949,0.02506494199960628,0.15187310734406503,0
950,0.032058629672498416,0.09839813793503663,0
951,-0.0027353409652055853,-0.0376871062569816,0
952,-0.028592528270753675,-0.061629313303521636,0
953,-0.05832012799888949,0.19321542043324944,0
954,-0.01490596855575577,0.019986554514636132,0
955,-0.12385666310398244,0.1637206190730908,0
956,-0.033095310087151754,-0.06426610098006202,0
957,0.04018555525372543,0.007779599582183974,0
958,-0.028458534068000387,-0.1448288171656081,0
959,-0.03695003616386435,0.09909825490393696,0
960,0.038366604805860884,0.022021091189584344,0
961,-0.17433572908227118,0.0874752280545121,0
962,-0.06031942998704364,-0.0928072611270129,0
963,-0.06871341467772657,-0.02564465631792057,0
964,0.016966494986191075,0.20740257031413512,0
965,0.11574960157076586,0.027303230375807983,0
966,-0.07165421665829376,-0.008097939436047577,0
967,-0.030274260920057847,0.008591020189190089,0
968,0.045887422930650366,-0.06887630239230527,0
969,-0.0701115891475226,0.06134713496361105,0
970,0.11580810895038102,-0.009404478205966228,0
971,-0.11275789202984922,0.04677592199566719,0
972,-0.0400167228984793,-0.09198981434370639,0
973,0.03489392362743686,-0.10107892920995143,0
974,0.045725817367013,-0.00666263650803674,0
975,-0.026931371845464937,-0.0674881604452105,0
976,0.01297762552391576,0.185062897114878,0
977,0.18381226752555532,0.05214683094015761,0
978,-0.024465758941568206,-0.0062277253570407675,0
979,-0.149506981588813,-0.027719818968491232,0
980,-0.0675087993024217,-0.009656737213058224,0
981,0.020675836110986407,-0.13114063786672178,0
982,-0.00628780748765041,-0.03854117790236147,0
983,0.13157153135993313,-0.18501776470932388,0
984,0.11538043124541937,-0.04646565081334446,0
985,-0.08703323601277452,-0.014808506166158234,0
986,0.0016352948595576941,0.04074960493235546,0
987,0.2408731332754742,0.09129497845883577,0
988,0.012549247311423373,0.09671705541948729,0
989,-0.20722015514071382,-0.01866324271012395,0
990,0.1158241963077355,-0.033244319156702375,0
991,0.04368285219765602,0.05273354795292273,0
992,0.32302578699663465,0.0011118783586874018,0
993,-0.13386098446174702,0.010598992205361,0
994,0.08582083549188856,-0.09376351276087527,0
995,-0.1366546238907795,0.13339487150345453,0
996,-0.0542794969373892,0.08709899440552477,0
997,-0.07111016282398487,-0.018917064856409788,0
998,-0.09168131593207264,0.02080916890420227,0
999,-0.17562662295411754,0.1212501772696151,0
