timestamp,value-0,value-1,value-2,value-3,value-4,value-5,is_anomaly
0,0.280171410824554,0.302128139819424,0.25079582287212837,0.24922900921035074,0.3715322623279481,0.3057607330482686,0
1,0.4441107231525939,0.4753112649565687,0.45562091801638194,0.42991546784166745,0.3888109824969192,0.4773236749058817,0
2,0.9761412297817137,0.9034805437561947,0.8375660609190956,0.8513710556065203,0.9152503897146109,0.8184911204757415,0
3,1.5651490195235458,1.5701012282157263,1.5456281146867314,1.5905712665360685,1.6164265526452897,1.6581288647308179,0
4,2.4805596140052923,2.5418525891709476,2.511147964313137,2.4197793079977576,2.5205092331665035,2.480649495449767,0
5,3.5077178181834014,3.4524362511709628,3.5752914086411582,3.4775073128538945,3.518940453946814,3.4448353654924775,0
6,4.589265144234567,4.616569207561079,4.532460283314372,4.493758215808749,4.548755666497659,4.536499619857673,0
7,5.566758596984765,5.562218389502744,5.566913738991473,5.501693790341147,5.632517987707667,5.5670177952653415,0
8,6.34805270804864,6.421837286189211,6.391172810684568,6.44219715825188,6.368405704358377,6.427164527533774,0
9,6.905950048956459,6.887856281580303,6.971819003081973,6.902395691617105,6.940870802780686,7.037716331650504,0
10,6.877789338696329,6.9133222693375656,6.8268136295711725,6.923213114256046,6.815229354883456,6.8467752492337715,0
11,6.2232916567152206,6.287018026362699,6.25087493896741,6.23959773876026,6.1208576570961535,6.125490425732632,0
12,4.971996134905257,5.041861183793399,5.034900831575984,5.041450152542334,4.96160816277793,5.115222351014305,0
13,3.476435648594979,3.447502587122146,3.484214555906149,3.405292387137476,3.452474695454231,3.4602765867186496,0
14,1.6583933546216219,1.665885870699529,1.5696950116983066,1.6945587227267973,1.6973627360186976,1.7077209635157506,0
15,-0.1418932220259232,-0.22545317116132182,-0.23053395654665887,-0.21843516803681448,-0.08430009026345195,-0.19868745886725328,0
16,-1.8233257415416368,-1.739540349494532,-1.6871329921468794,-1.7182850353761228,-1.7028593534921894,-1.6666009961323631,0
17,-2.7206185648009624,-2.710268367137256,-2.707767163016196,-2.7235920229856627,-2.850112149771866,-2.7562927744636587,0
18,-2.9710084173956304,-3.018444158665435,-3.033005944949759,-3.022638184497705,-3.0449476538260654,-3.0407555803878266,0
19,-2.807710123611955,-2.7142205744808026,-2.7696124303459717,-2.7535081078174266,-2.7891792672026865,-2.7112224346735627,0
20,-1.9619827858838372,-1.9893086911984146,-2.039861379706059,-1.9218812985249614,-1.9764499439191636,-2.065646575741708,0
21,-1.0259458471491754,-0.9579612710315999,-0.9987475747375278,-0.9596983570801577,-0.9729593849189583,-0.9769182880857012,0
22,0.1468254261123943,0.17280043490362976,0.1574947785047771,0.11389300322878143,0.08173255165161888,0.13136385851510898,0
23,1.034112993494045,1.004680325622174,1.0021846896257025,0.9684157388062775,0.9569428374886653,1.0629176883056402,0
24,1.4866367723129612,1.5008566808725041,1.5503784268533414,1.6072418280886773,1.5203724631759608,1.4785676279378903,0
25,1.473040900901947,1.5395606499195784,1.5442199690518053,1.4434590415563875,1.5394882344228515,1.4555091339159538,0
26,1.2516074521410532,1.1901937913053162,1.335806746233437,1.3052487969660236,1.2526073684278807,1.3016337418701986,0
27,0.8112049414362744,0.8052821043254266,0.7133046937197607,0.822937582690026,0.793159586939456,0.8360849062653373,0
28,0.22316461308648167,0.2762747072871855,0.15225824278703592,0.11070080469184215,0.23290178125806144,0.18906604366300506,0
29,-0.32153773700181354,-0.2977287598841226,-0.38029502817340294,-0.30941422082332215,-0.338361905570761,-0.40343429583999396,0
30,-0.7040559018666258,-0.7211993376941361,-0.6871569569712647,-0.627878259645735,-0.6055097560692102,-0.650451459637636,0
31,-0.7484819575620332,-0.8669222045718186,-0.7911984071796944,-0.8063683672318785,-0.6821966719781075,-0.7858272843694825,0
32,-0.6434919927957073,-0.6582197381587807,-0.5640498295105559,-0.6458135616523782,-0.7334451805446626,-0.6178562158717129,0
33,-0.4667369995456622,-0.4391661793890753,-0.3214806299448864,-0.40313222371838,-0.4257265537514531,-0.4466332863296058,0
34,-0.17325093420588267,-0.09595435217457825,-0.134937250340519,-0.14639952983053245,-0.17895175564282417,-0.10640950882695781,0
35,0.1227498849883624,-0.03125262472539603,0.14900673839071216,0.2006818847332519,0.07330070104496722,-0.0006286220721413438,0
36,0.27146669904675214,0.31486925446056396,0.34388017604987486,0.21384603837738053,0.33977290216179323,0.23618914594968143,0
37,0.3245373062085465,0.32787729106260594,0.2687604319314304,0.36983086329870185,0.38077396183190476,0.4244226621761571,0
38,0.2752593862331948,0.32809746632970765,0.26511672571784856,0.21870117783140358,0.2983476977085266,0.2930997822361886,0
39,0.0472153539270139,0.15898036007677593,0.20185285718935828,0.18792237461861933,0.13134566054805566,0.25031426482394503,0
40,0.04229994291424531,0.021356452923453593,0.0918781508900379,0.10040391785689864,0.062185323352987654,-0.007851724535631675,0
41,-0.03990880787012499,-0.033221303738948466,-0.07192664490402637,-0.01998001852458146,-0.0016779380968752408,-0.043756055340077246,0
42,-0.1111479963989063,0.023339171323956617,-0.14279446225143588,-0.09564031574628534,-0.05107595424722613,-0.17477984073357594,0
43,-0.08538071977419404,-0.12489812132008116,-0.06965181119428078,-0.0656874514016395,-0.07731539749323976,-0.14473814754766573,0
44,-0.15624331649110296,-0.05988717913173192,-0.11083428036987464,-0.11429771856151891,-0.09982518149033874,-0.05825478791666684,0
45,-0.00416379587347223,-0.014942973029361845,-0.00042772194134631236,-0.08476691204319335,-0.0009124554695344109,-0.10585271581982991,0
46,0.009614711292010154,-0.030430391759629655,-0.042727988565711555,-0.0191827030358579,-0.014811727471829052,0.023117413189846347,0
47,0.04407650374688607,-0.056128501548052934,-0.0027069822979098566,0.015936861618206382,-0.03817730872791592,-0.03124074982977397,0
48,0.032143242611835744,0.08356318798243986,0.010133963257249752,0.075021867133513,0.07253200143796534,0.0536892449100065,0
49,0.005983896214714023,-0.02422148678548251,0.0011797065777341513,-0.009079702865622586,0.056379803081316626,-0.016630034386798793,0
50,0.03186747999076889,0.02596631996665837,-0.007798779187030154,0.07744124997408283,-0.012148611811829722,0.12436269555908237,0
51,0.17592378387850582,9.228230989680869e-05,-0.011848049945650384,-0.009946090367558776,0.026886682760337368,0.03368607019567753,0
52,-0.021644459892473253,-0.03568825073542535,-0.017768272592145036,0.019541434946470274,-0.08196284833408303,0.049777478311426065,0
53,-0.055003583838918575,-0.015661749333666777,-0.002529467346697723,0.04510031978299377,-0.07651677499747522,0.11078107002309842,0
54,-0.0007380020511692379,0.021459831386531163,0.1162138817699071,0.0830052381632716,-0.02917195128821244,0.07556415592128499,0
55,-7.075784136815946e-05,0.02353609660423162,0.04574870694835368,-0.08132519821275495,0.06499964971370258,-0.012171626638081603,0
56,0.010592851635701957,0.056609674430366436,0.04158879494751491,-0.035408258250748614,-0.023543429245679707,-0.07146331392299018,0
57,0.00726189225311859,0.0034001777478899283,0.06497970887043258,-0.03905078221879212,0.022751594652831244,-0.0237680171643305,0
58,-0.036602243796480645,-0.0679617821717364,0.09132465959879665,-0.06539344801781531,0.0823156086558788,-0.0830507569647304,0
59,0.05215313572376733,-0.044667262931175344,0.03279200510475533,0.04896751276682239,-0.060256430740375636,0.019087007543546194,0
60,-0.04463275944472501,0.02545545080228643,0.0875649715149926,0.01780597520476912,-0.03152443514879333,-0.0109512305872788,0
61,0.023668983324250454,0.008078955803316194,-0.007899508731967,0.017822812615865453,0.018295141821930663,0.020545026232944578,0
62,0.07429763416895561,-0.021328147240877633,0.08011876238971,0.05578150374031487,-0.05569191259797788,0.07118260687823497,0
63,0.013238615451673593,-0.07458896696768777,-0.00372776190353979,0.10107842689678656,0.020256861317662377,-0.03257995095528303,0
64,-0.05915063293192214,-0.011632908757837169,0.06314161375162787,0.03634559547837482,0.09056177062717592,0.06320513528180462,0
65,-0.02132667520787201,-0.014660973883424435,0.061834140559898144,0.03889318423636489,-0.07849618537152407,0.018539482779406036,0
66,-0.002894972271248293,0.04390022306286585,-0.035263318099014784,-0.01830141869552839,-0.03601540407661374,0.025378712647054418,0
67,0.045889820813678574,0.008609828599523618,-0.0041047059892543305,0.017951295901551964,0.029866447523893072,0.006116384588664216,0
68,0.09785094768807788,0.018908385177135154,-0.11370233244887386,0.03690818682426894,-0.04548542460502573,-0.014844928210688014,0
69,-0.006409530723537369,0.005082039549285872,0.12050153597288192,-0.05752345848883879,0.0219864674923967,0.07459984765949215,0
70,-0.06513520709113327,-0.013143499718054953,-0.03893426176498825,0.02252891545178299,0.03054971923718276,-0.01722996668667713,0
71,0.0018539687714534472,-0.023132122023300502,0.024435137370509362,0.04632782333241683,-0.020148387453763114,0.01621320177395309,0
72,-0.016153713344737804,0.03224934613670079,-0.04360568189579503,0.07471228791906608,-0.04067959599297472,0.06452666145138305,0
73,0.015223921402935745,-0.050491447139105076,-0.06105045750298052,-0.0013502685303602416,0.031071254234768007,-0.020949317357617035,0
74,-0.03420844159984619,0.019758890338828567,0.07669577597080653,0.004162714159935338,0.012316658431606203,0.07752291580467421,0
75,0.07300560166378653,-0.07111740793366435,0.13951825817193544,-0.06703055876563603,-0.04626737616495538,0.10606961983783439,0
76,-0.043006425339824975,0.08612185975385987,0.04513718434610082,-0.07781434166632357,-0.05659509218084586,-0.05823522240529418,0
77,-0.09825391020928834,-0.041128151244924305,0.02178800140210954,-0.006240255434091885,-0.029890217823850228,-0.10297466618956232,0
78,-0.10057013509985742,-0.017102691004317803,-0.10206510704940301,0.0302250786810364,0.04131661589600302,0.06416929979788452,0
79,-0.03744433965707258,0.09212158352142785,0.08124894003551243,0.022027687034034432,0.010421314545293783,-0.054977199572153954,0
80,-0.03238035649343764,-0.058861734798683805,0.005881891607455254,0.012305445667058575,-0.04421580532921949,-0.029089241072373574,0
81,-0.015797872802909063,-0.03229614506560862,0.13809467270287767,-0.050707916267391705,0.03673947580108372,-0.008662188308739008,0
82,-0.022104693358277607,-0.04475952035483478,0.024820341662775258,0.006992392864268347,-0.09806406883871595,0.09069476519475232,0
83,0.007213249592988847,-0.04841421197996291,0.08361369312382713,-0.022782688702252953,0.008421645849553756,-0.012597676197779378,0
84,0.08660735907202896,-0.04052132242153341,-0.0015834150181630122,-0.0005674736680473201,-0.015632979899552847,-0.11392432078256597,0
85,-0.012852595929646477,0.046596316604918996,-0.05835654443487546,-0.011583943850947189,-0.01998457411075247,-0.06131283550062496,0
86,-0.014706286000563493,0.09371784411974438,-0.04716968495796951,-0.06851255476682884,0.02871649118394636,0.04527004688085205,0
87,0.02873012964506892,-0.010020288245113008,0.09559821305264311,-0.009857586349868754,-0.10383037395184914,0.023574339019107292,0
88,-0.10149445506282508,-0.07795067493013887,-0.01569304353753109,0.020096339977248412,-0.004607699640038517,0.025651223988053768,0
89,-0.0037396797666693535,-0.043858955496723716,-0.05026188250588653,0.051687320488933854,0.011799359584726409,0.03637334828391493,0
90,3.582996232449727e-05,-0.04084571449111458,0.035495299115616864,0.014262077026236924,-0.04322916788646675,-0.05039831768530078,0
91,0.02523337510332964,0.10534957037373778,0.04650309198071911,-0.047747672632822154,-0.02073206743809047,0.007952428061248476,0
92,-0.05035757264928708,0.1789842417397139,-0.019928768109924166,0.016963130854781135,0.020924024936058605,0.03398759431484369,0
93,-0.014303952354202632,-0.02047697855170777,-0.017791008422493534,-0.0018045975740722247,0.055210273914084944,0.004893414178251704,0
94,-0.08218029874498983,-0.030488919703135012,0.018466574603689084,-0.05658813421723233,0.07747919680296754,0.07638923259237643,0
95,-0.09487362376214349,0.02691031664525206,0.07286985672350366,0.0011246235507090235,-0.08570752702744054,0.014509326432701242,0
96,0.01022236517522368,0.033067894654340305,-0.05358932201103428,-0.040725098247257605,0.004011214864598034,-0.02072702772152245,0
97,0.004547509230753244,-0.010567674119254794,-0.0066818983776880106,0.07414795259805369,0.048807804231938826,-0.0763550056319354,0
98,0.009156497121173014,-0.015082901527325825,0.003762042100257037,-0.06742635699701054,-0.027786906896165003,0.01079897891808489,0
99,0.04201966536600789,0.12425046650948672,0.12144672537031653,0.12170174516431154,0.058799975922444805,0.08124138744751207,0
100,0.21871219382566948,0.16435864826391425,0.18153482345742217,0.2000742315795195,0.2881156271870054,0.21928424046266276,0
101,0.463931053577442,0.47237585387413067,0.44512507792315076,0.4097646628335676,0.44396807763762075,0.4583039285879256,0
102,0.7270605649443105,0.9323805005966701,0.842970578335786,0.8764517928166177,0.8627747667377804,0.9000419960654227,0
103,1.4683165904326958,1.4633950169699668,1.3616913622319795,1.406637823708662,1.498980035381224,1.4355550357809603,0
104,2.3018973472362436,2.220959461259256,2.1300685699787105,2.15689433205802,2.2822952914423227,2.2370014210051528,0
105,3.1867090021821696,3.203082881078066,3.0933299392087705,3.282032835253161,3.2625439729916166,3.268917667158971,0
106,4.307768737917177,4.295675476896879,4.3686231846440435,4.296792286997528,4.248243282832309,4.265617986185928,0
107,5.361503393053748,5.389811454057374,5.350593060091628,5.3607008208065885,5.367036717392366,5.3875438383783845,0
108,6.247436415007666,6.245483781798387,6.228252423688271,6.306702277948877,6.240008470665083,6.161133255044568,0
109,6.909590779663321,6.871671508392387,6.935235148753093,6.931571908821652,6.772825943422677,6.782409490987385,0
110,6.903984034451972,6.9621849655918515,6.963495728274144,6.959651553414307,6.9470563231161595,6.914743324593184,0
111,6.41454897936651,6.454902617343636,6.4187416374454545,6.386053973557548,6.470416811302666,6.449427599245829,0
112,5.251331321201854,5.325449871696215,5.397995620718556,5.302656581634969,5.393950164242343,5.37506279660035,0
113,3.8089143936299124,3.788381433508801,3.8600293615015677,3.9149573032984706,3.93422326201725,3.878896694990943,0
114,2.0759100304541303,2.0594669716808855,2.092662032789425,2.097327400582687,2.043919942460294,2.0868970743164312,0
115,0.20538728828803615,0.18005342766691934,0.1835319655841763,0.27225838151614945,0.25609361926166296,0.1070077738626286,0
116,-1.4783009285063287,-1.376725442515281,-1.5184387603010223,-1.4496000897469346,-1.4229996760026282,-1.3730782702307367,0
117,-2.47088517926602,-2.4909201045635454,-2.557392414378971,-2.5720754229854275,-2.4569894237880283,-2.491224913148743,0
118,-2.962823000200412,-2.985473550055886,-2.971533428191476,-3.02140967289344,-3.029150096981545,-3.024606994476527,0
119,-2.8598898901595593,-2.8189576864308177,-2.7780239381586487,-2.7045669421145817,-2.844480993109228,-2.763094174084089,0
120,-2.2779263386916413,-2.2050635948288653,-2.2579491733903416,-2.2232174744823276,-2.226093679594013,-2.1707690872864824,0
121,-1.2065474286242188,-1.2657562848943322,-1.2130257310284736,-1.2239658441910481,-1.2740351811970396,-1.32011291961709,0
122,-0.1295944972222675,-0.16425987053557362,-0.07772892271798422,-0.11967895947278386,-0.1051328494160501,-0.14275562367848116,0
123,0.8073551366105943,0.8318195721578938,0.7870851695693707,0.7555330534229353,0.8536242320214306,0.7853349061935642,0
124,1.5052199758004368,1.4310253676996663,1.4187611685994452,1.4270579247223656,1.487005463183751,1.4449910609530654,0
125,1.5736180884299749,1.4812341061268708,1.5749184353086734,1.6518536016813636,1.664409514144929,1.5673371632834883,0
126,1.33695617766463,1.3785498899907895,1.3000050905626244,1.3417136810402193,1.4277678727778105,1.3581636639111316,0
127,0.9527494756568037,0.9836275330947892,0.8399741908962156,0.9073989505635415,0.9923292308948186,0.871009846548277,0
128,0.38465930343424726,0.26657574304089915,0.37511989882473334,0.30071873176394887,0.3888205752721814,0.28150697735839686,0
129,-0.25175824154862037,-0.27854063798271494,-0.1253670879497242,-0.21738521737915398,-0.2549658927879542,-0.14303350172869161,0
130,-0.5229359491416515,-0.5598194234860985,-0.6466254250996429,-0.6910516716006294,-0.6329772098070906,-0.6631932221642283,0
131,-0.7423360331178408,-0.8170621858915693,-0.6877136545864142,-0.6983688690536302,-0.8275371079525253,-0.8231397273140932,0
132,-0.7474310220637399,-0.7106851460716087,-0.7554835469105746,-0.7074900049725374,-0.7246272286846932,-0.6999630345679964,0
133,-0.4270695496927459,-0.4587679905027882,-0.45512159802503976,-0.4886192517514998,-0.4190021661489964,-0.5433916819328828,0
134,-0.2080338017321046,-0.06567899164396146,-0.14777162433552116,-0.2336152099986506,-0.18338085891130412,-0.2181942579606945,0
135,0.012350815877360588,-0.004036223648428899,0.07710372568131724,0.020747519629951625,0.0003692454614771176,0.09782161423457376,0
136,0.24458437271188826,0.258307483256668,0.28252626349830245,0.3081912580217937,0.31860478664893543,0.20813238745206628,0
137,0.28986815771635305,0.33807770622142264,0.317142042070526,0.3829416002242822,0.4003660539911932,0.30250086175729296,0
138,0.29927264370081874,0.35902811756330427,0.35298085451219974,0.3442484723917755,0.24440652827511655,0.22994226563202955,0
139,0.22956831368047598,0.1922482995719669,0.24476675838062736,0.1941094462240008,0.165026464607417,0.17673526002417317,0
140,0.142492616080662,0.0640366623501172,0.027587394607590493,0.08777506296906935,0.05703027198670735,0.16270664569683177,0
141,-0.03335769998183284,-0.08184959744446263,0.09567580247504409,-0.019276534370263672,-0.00279335651397419,-0.028555370306150768,0
142,-0.019900693486354495,-0.07848699798075448,-0.10908337460547521,-0.09492954342807942,-0.028970388325767253,-0.14298442804514844,0
143,-0.08816377369572394,-0.11257499133350095,-0.0692376976873684,-0.1346000346179722,-0.14266913029883824,-0.02369023699866342,0
144,-0.03353883313030746,-0.1493019043692192,-0.10502653941304746,-0.09031398050761738,-0.18661907628481533,-0.0826811301419485,0
145,-0.15243123648007634,-0.014161295883347524,-0.04860614452946122,-0.05985334509523244,-0.09743236039282199,-0.07862852018261735,0
146,-0.030677270638663313,-0.003741807174057081,0.0046583117676213225,-0.07666755372676497,0.07248484805006986,-0.07803859533367069,0
147,0.03339339737251598,0.006770455563607121,-0.020150739013466507,0.046637040605065676,-0.031309576424906886,0.0815793819595525,0
148,0.013177413782829411,-0.04866601141775494,-0.028472486629603697,0.02616862418727792,0.09444119150153996,-0.06411764254520659,0
149,-0.025827797855396628,0.061367631609594964,0.09755767877323643,0.02453158774270025,-0.046116690694552966,-0.018493569255322237,0
150,0.03811253275549862,0.0407883823285476,-0.041163063952442396,-0.02791770703077779,0.06141348670549855,-0.028711170376398816,0
151,-0.044425133699529926,0.07981176755313962,0.022498393706780744,-0.029771093701854663,0.03249502373993434,0.04120938011219536,0
152,0.029979413761820322,0.02116832354933501,0.06654883197018743,-0.04812624020466089,-0.05521246032513289,0.004111132840334322,0
153,0.09332321339569583,-0.06152770759455253,0.04559203189347806,-0.03151631998235534,0.001566118411876546,0.05419547941803861,0
154,-0.0394680294654626,0.010425348608939199,0.005753236685935492,-0.08163670884018163,-0.06285160349615794,0.010147865608851454,0
155,-0.020737103568330185,-0.06013995532042012,0.022660384740132693,0.029883891914559004,-0.08536393126803922,-0.015324374466193724,0
156,-0.09004946254284348,-0.005021465140146596,0.003016234553345121,-0.009697675633067046,0.031695200200243565,-0.07747338536760129,0
157,-0.05820480771023575,0.016984809593300062,0.06957569683158865,0.03993562860086991,0.003825248741853122,0.04887735308555852,0
158,0.04572330984405504,0.027807213676256343,-0.03212717452867423,-0.0034596016298674083,0.0052956624138306,0.0019764359529519334,0
159,0.054791536239102094,-0.04482614357872157,0.05433182622579211,0.07420306982263512,-0.0392358125833828,-0.0820717597939016,0
160,-0.055199191339830915,0.0004219361234751031,0.01924279209089585,0.02626494222260711,-0.018239446616635582,0.07225067615399017,0
161,-0.05649722733820472,-0.004644945639024316,-0.01468881545398017,-0.02431003350245966,-0.043486311132740034,-0.11491666486232324,0
162,0.035641858225035065,0.01749696045870122,-0.02686708957332344,-0.01365145868072728,0.0010763681896005957,-0.13827345945449268,0
163,-0.07715003165294679,-0.00010764081294976147,0.062039969574425216,0.1068851909105745,-0.0004204794416557101,-0.017124941810729724,0
164,0.011173496592390555,0.028742176206686385,-0.04419950737558195,-0.009815206932618193,0.003252657295449329,-0.06950155842862361,0
165,-0.0022608806334901135,-0.027687851026370093,0.030657853959818876,0.008509901166511704,0.014919692065251549,-0.05465525129403416,0
166,0.017890309808315276,0.08903181666767843,-0.14108973059584426,0.07187289044516738,0.0018174696677243107,-0.10196629149348616,0
167,0.020033913179096148,0.03348553112565295,-0.033503828896571476,0.005303462758146963,0.03796394737193371,-0.07771556932782077,0
168,0.011267555066578436,0.035568105620810725,-0.0012323653643770583,0.006240522202765053,0.028889305529573965,0.015790893439461263,0
169,-0.05791249714305276,-0.031017983128256574,0.009164896923780554,-0.019646502702886988,0.08614004360664385,-0.0282243190823288,0
170,0.0015926968637059193,0.013192070814994777,-0.016476317116098725,0.024824693309366163,-0.021553825043872692,-0.01972727902714184,0
171,0.054883671923949245,-0.04876387187848341,0.027619968249424875,-0.047111848601539344,-0.03912447887708506,0.0934832483495974,0
172,0.011502493112904626,-0.013522070088323804,0.024222117994963974,0.009074744805363926,0.005337838156016637,0.02964097441074594,0
173,0.1156210982679484,0.0323932648262565,-0.08846404611384331,0.027189589709996808,-0.021164159384507684,0.020346165303294583,0
174,-0.01547747721167552,-0.022531203097833945,-0.016797222241924863,0.0022661684943937345,0.050491871705166745,-0.005932553434346694,0
175,0.005842172489118081,0.019750829202863918,-0.011281476877759444,-0.0024491320908724286,-0.025359599513032228,-0.026267576405175217,0
176,-0.02414655086204933,0.056624485736058966,0.039567092845920936,0.05448816533137216,0.03646260702064047,-0.018768589082621134,0
177,-0.05994018013958507,0.038829123807715284,0.03957237305483957,0.04423195797475504,0.04980933662444371,0.0036360799480758895,0
178,0.030344861577021903,0.001005686880599784,0.066775369104477,0.06278533090879478,0.0887734194186587,-0.026518775067797207,0
179,-0.09067159107628998,-0.004979766505081616,0.026574060691213673,-0.037106534211859714,-0.030075442954342693,-0.049976413942208656,0
180,-0.026483797171508748,-0.011319807079497864,0.11615121479044427,0.031971240829407326,-0.04376523268476078,0.02186275459845826,0
181,-0.05289508334258805,-0.09218054967651655,-0.05708897064727975,0.02863245426978588,-0.03193151058614731,0.061253681536428406,0
182,-0.03709726922191918,0.008605194344343661,-0.022667730944888463,-0.05675914176258473,0.08669672457861971,-0.021539838820511463,0
183,0.014992794440940505,0.104452668803477,0.03896072643161187,-0.060547546339956404,0.01729649676424605,0.011816794824592983,0
184,0.06083474097509721,-0.007643763640160618,0.05072992590776793,-0.08008218434842229,-0.00968959999636423,0.014463845015752598,0
185,-0.024379994472903076,-0.022380437063542136,0.017019105349797926,-0.14044372150615853,-0.03482361888931924,-0.02669816981529386,0
186,0.039203311486574736,-0.1229466073444398,0.033591513656072804,0.04048319895794651,-0.04384434200366685,-0.07769611096376274,0
187,-0.09569165718498243,-0.050437503874764256,-0.04845518109844839,-0.04067062619438131,0.012270341205608267,-0.07559179863357887,0
188,-0.01217435947265709,0.04284437648046462,-0.03589426661767428,0.028663328475543887,-0.05837881264527988,-0.014893667787981941,0
189,0.010811672119445618,-0.008179751918613379,0.07113597737802524,-0.0021391020816248245,-0.034304282050350854,0.039434587278318625,0
190,-0.019708324430629504,0.012418727626642846,0.061982204828979884,-0.09644612219634818,-0.03967789297663872,-0.010649897797737382,0
191,0.0021524315988333143,0.039837351331829446,-0.08013447724667704,-0.048492349670894,0.008453769235225802,0.0623612860272918,0
192,0.028825356394853372,0.009921866854994932,-0.0017187704137699236,-0.017037827793552167,0.0668854905633497,-0.0864349951274598,0
193,0.06087114216242893,0.12198647844020422,0.06556664944540105,0.041812298099095924,0.11157242885436564,-0.07471931824450606,0
194,-0.07189426812595823,-0.03911455707448605,-0.049170032026588886,0.0036819596389273688,-0.06792731991430793,-0.007319615566699631,0
195,-0.054621752857941845,0.03388287750334812,0.012738216429306082,0.09587358456562112,-0.0869104701237208,0.040751839224144354,0
196,0.03177574986672371,0.014564928165931863,-0.005101713252851156,-0.13491369167595027,0.04939039965523603,0.07743544173560239,0
197,0.0791089964377681,-0.0008339575257910164,-0.009809491318114098,-0.026818247146118093,-0.05501796634960806,0.03301587505455736,0
198,-0.04524685660342727,0.10851262582832427,0.1160341427710884,-0.06972032190197276,0.047434584183039905,0.027048948729921557,0
199,0.01061809687387525,0.11289720602555285,0.06703329765799367,0.04429290185741481,0.03087516826312404,0.06194626609253047,0
200,0.19658920139527472,0.16499650674871438,0.17014343634953866,0.16102119215361138,0.16405963011294827,0.25453351371313243,0
201,0.4395723203902616,0.43396319675897654,0.3920633940682098,0.38365491543893276,0.47887963194272265,0.43633316799916444,0
202,0.7963448326763755,0.7093157200956307,0.8025837124594916,0.7390604985614448,0.8200005983872936,0.7911884727076197,0
203,1.442306696390423,1.327924746814453,1.229833249645111,1.3161124733884868,1.300758879758974,1.269020348084317,0
204,2.1573399152209705,2.032175176539967,1.9988814111137172,2.037647851498593,1.9768989449734446,2.0643114382557233,0
205,3.0132132144425054,2.950419941218342,2.9555706655845286,3.025911720629346,2.9582938210068197,3.002256270251264,0
206,3.998549723938118,4.184404546557294,4.121767831671529,4.07120260743671,4.0566148125556,3.984020556510697,0
207,5.081791084572466,5.111664348283689,5.2001688702887385,5.197134352708601,5.0744609041701905,5.085964701137201,0
208,6.109237654243243,6.12918611673317,6.0599471975482135,6.043410577238063,6.008879569442997,6.079989471185726,0
209,6.61704783957243,6.73525842538403,6.765624441119409,6.652781375550595,6.747807309424974,6.700740906598569,0
210,7.003214419648645,6.960595935528409,6.955620198734572,6.903604131563024,6.864395628928049,7.021174521487571,0
211,6.647473400976372,6.61615288973024,6.524577243843072,6.59531417235963,6.607771498587534,6.618701190230448,0
212,5.62220267191369,5.714911067646162,5.604595080798948,5.595702029698023,5.580363397810275,5.7329191931886925,0
213,4.231242096442216,4.274765803604231,4.284114986060507,4.248963163501883,4.180970699568326,4.23547489961197,0
214,2.4699157568639656,2.4640936455729814,2.4932307459919962,2.469063587368752,2.512582214923759,2.4745108126873085,0
215,0.6783732674301243,0.6636816751906387,0.6213281041811939,0.6754324481378186,0.6901965978562136,0.6904564304126222,0
216,-0.9614732501834824,-1.1077132503881664,-1.018293902696267,-0.987660983409085,-1.0361704026900465,-1.0704286230395212,0
217,-2.3471932297629263,-2.3200076553795443,-2.3714870128086414,-2.337375997897765,-2.3103710398328947,-2.309567939674462,0
218,-2.9612697888496244,-2.9025904941638045,-2.9731467716380453,-3.011316241440649,-2.980989544223331,-3.0077949836369138,0
219,-2.8580660925093917,-2.861170111029155,-2.9431780690764815,-2.877220409979968,-2.8655949201815387,-2.9667916453460066,0
220,-2.400611759958041,-2.4223734581055054,-2.364478056741064,-2.46097940731838,-2.3560594232737677,-2.4217529409158463,0
221,-1.5883890305892139,-1.5763564151088494,-1.5008014033543404,-1.431288415482678,-1.5086421674243455,-1.3970705467850009,0
222,-0.3411426289818501,-0.36372887680611643,-0.36600267575943185,-0.3832261622915592,-0.45441108957502846,-0.4140571730189093,0
223,0.759454475023617,0.685277176297754,0.5482585915021437,0.6244764605771214,0.6121235489268123,0.6679024550820576,0
224,1.3924642885448117,1.3036653567935579,1.3279227195140357,1.3444896340681416,1.3461014841179153,1.286183999220802,0
225,1.674078028453711,1.6025523144526124,1.5141802804543447,1.5753033367506564,1.651232001641794,1.593774189225533,0
226,1.4161168676399756,1.4359767596263897,1.5052254686698654,1.386131439651398,1.4258539222362347,1.436182563628107,0
227,1.1051743062461143,1.1019018529002236,1.0487182695577228,1.1462571340688914,1.0865826449163158,1.0041445243024962,0
228,0.4285944064064475,0.4280953504334004,0.42553200731790086,0.5313392287952983,0.4269690193624396,0.4502594262236633,0
229,-0.05247226414733975,-0.09582533296400966,-0.08841011213662416,-0.08053066775636826,-0.10549358835004921,0.022961609285228377,0
230,-0.6652955727637984,-0.543763126906013,-0.5433462117597755,-0.5897630591209844,-0.5542028705780926,-0.4665132591420168,0
231,-0.7762112429366387,-0.74222065822307,-0.7483552827465108,-0.7830229318653616,-0.7497620546971826,-0.76215669856813,0
232,-0.7810426164223792,-0.762535349599956,-0.7624498587702514,-0.7370201729560395,-0.8249390993941785,-0.7934676935423796,0
233,-0.5427245058106436,-0.564644748232927,-0.5544718806721817,-0.6058511843064864,-0.43892229708924846,-0.5673205067404351,0
234,-0.28653408030552635,-0.2331991804474304,-0.22736778824304651,-0.29758612287181113,-0.196591701251871,-0.23054706988234885,0
235,0.11071436203941769,0.055603331415241354,0.00676026429235653,-0.03516629216853359,0.06439619782024344,-0.007063502067748414,0
236,0.195676791915544,0.213112795931208,0.23225996366161772,0.22439853825369535,0.24203403035269438,0.23909779723653846,0
237,0.3200053169225508,0.34974539067163646,0.3085768010759841,0.27910598371722173,0.2947680913658749,0.33723710600158535,0
238,0.3148196480400755,0.23071759337047246,0.31916711980861173,0.3758044736334687,0.2478343365971909,0.34909547454732215,0
239,0.27210936082608694,0.359421670667032,0.2750905030600289,0.20658829932513764,0.27002901304911997,0.19872654913128673,0
240,0.1270702011345921,0.0602991349416275,0.10898453115378874,0.11656180562912219,0.17561775607244498,0.05902705303252406,0
241,-0.05756530573006926,-0.056557539941752485,-0.02775962452185219,0.010045349964889016,0.03746064941208902,-0.051478063281345215,0
242,-0.09951944500475823,-0.0919400384177785,-0.0062928732278208915,-0.04394586243136986,-0.02370409683984799,-0.047888564347195864,0
243,-0.04970075785234805,-0.0705689535196917,-0.22300945859666266,-0.12351575125541453,-0.11389047548783403,-0.17265190959596827,0
244,-0.0331971710530147,-0.08592247085486635,-0.13817142044134947,-0.11605280350726485,-0.12019090276263424,-0.1477210453201736,0
245,-0.1431232800080826,-0.0931295060067576,-0.05417998964091289,-0.04159721748847979,-0.017987701161679033,-0.05294668660953071,0
246,-0.07470698621157468,-0.1652756394356678,-0.12410272912673267,-0.06506107688418286,0.02295936647157229,0.008559852247287211,0
247,-0.0029102917952911686,-0.0001592146443856737,0.024416201332172472,0.10913930088776183,-0.0316800145392889,-0.06498328398473477,0
248,0.061629197877617836,-0.05981577370415678,0.12398170602035466,-0.00411835415987891,0.03202585949614771,0.03440594130131658,0
249,0.06218045752259349,-0.0041249708103755015,0.0938589062008747,0.09409728129647363,0.05534858660669065,0.061636200582185566,0
250,0.0943760931009393,-0.026239096062970074,-0.08259641404400739,0.0017717848044125663,0.054889709386355706,0.05714998653969845,0
251,0.08151844512844329,-0.047442695762440715,-0.0029662281807276755,-0.021083956430788454,-0.013286847729882116,0.04758957238628219,0
252,0.03700376518033831,0.0905877489245173,0.008161500755444116,-0.025396237574099964,-0.050230859238983926,-0.11920126544281427,0
253,0.06905968269327488,-0.013632281787752724,-0.010711533171473893,-0.036235697271833664,0.07708859781258313,-0.06253237602264072,0
254,0.014510457309277195,-0.1087055149290681,-0.06001065276714898,0.09057324342778346,-0.06525660019342176,0.0020842287229098488,0
255,-0.01828031332946647,0.058563025358913536,-0.054753108331551385,-0.11085586434209062,-0.039447023380186366,0.08683781699989779,0
256,0.05230983299400556,-0.0029767803133771845,-0.049407278070972976,0.060949831000004485,0.03311117885287162,-0.05199176170689135,0
257,0.016188768943772847,-0.04680164038661746,0.02568917980395937,0.004833654147925401,-0.012599029472989371,0.03952063704036444,0
258,-0.016593133183355587,0.006468146996911493,0.045727793312563284,-0.01974288839327483,-0.06708172618700546,0.09499041315287016,0
259,-0.020057782244791968,0.010497292581431318,-0.011192168823555164,0.04927624141947614,-0.07423965555394511,0.03372031701726884,0
260,0.03865179737828388,-0.029604267028564366,0.035139753484434745,-0.013296243997383925,0.015150801494576828,0.07451242522534401,0
261,0.08984203994670112,-0.026923769854599357,-0.02132111028446577,-0.027536380415163576,-0.005860622096199658,-0.10968152567642644,0
262,-0.038792463057291775,0.029115086800363132,-0.010412775010916704,-0.07723726142796705,0.023945440446963635,-0.052643777411861374,0
263,0.021224954745697425,-0.03408118145603677,0.06436522764956813,0.010128188774724942,0.022782799430092513,0.06910019434346551,0
264,-0.03897443077960567,0.02992611047376382,0.008522350195344582,0.048759907990577334,0.04082247746964758,-0.022489184151314973,0
265,-0.008274164265584165,0.054104879033884154,-0.01431681561473862,-0.018108033269291817,0.010321045626824529,0.06900712713808002,0
266,0.026701735186654557,-0.004025190508399624,0.04040390328236414,-0.0814144213408633,0.021981693125529837,0.02177430905088325,0
267,0.04271904321299544,-0.06843893919749233,0.010487106856139263,-0.04205432419737153,0.017337194517237014,0.032344029562692736,0
268,0.0019290991286157707,0.014140123314185257,0.10057964238680912,0.050192333909251645,0.01185230191476328,0.037248138389768835,0
269,0.062290028862414686,0.014523046194424375,0.03295537860344004,0.06934104201137403,0.01364587088696242,0.012034309206570525,0
270,0.050106091306453555,-0.01734551049222718,-0.04706866224220798,0.08703409361086481,0.0009436750789157835,-0.04813355647136649,0
271,-0.033241434239617236,-0.10589399754426124,0.008866934699014933,0.017818544219800204,-0.10671649953580138,0.019702800788719332,0
272,0.004253344481520257,0.05500238072392926,-0.029020928818260596,-0.010050948564167706,-0.04658971447634696,-0.007120149894192818,0
273,-0.05152702514886541,-0.01438317643036742,0.055423389937039755,-0.137217024750179,0.04728300240395237,-0.05008979968474576,0
274,0.014266715769385797,0.0528897858507106,0.029961391082301652,0.032247628264143006,-0.07222148732536646,0.055481077552501826,0
275,-0.010071594942836073,0.03107912448840565,-0.08342617414997619,-0.0035931245447285163,0.038540298222662035,0.02903373066007859,0
276,-0.05829956634688526,-0.08221869298413653,-0.06736077363098374,-0.04599235954597253,0.02520058693835779,0.06065153724991877,0
277,0.023827798287968893,0.00045194961437943664,-0.01212170467248626,-0.057003131271289635,-0.01022885629357975,0.04750562630902228,0
278,-0.021504927146538476,0.03471091825821436,0.02979015093591395,0.052594870659454375,-0.03456201428457557,-0.02627109734646434,0
279,-0.07052563843490708,-0.04564300564943644,-0.1207488887166393,-0.002861219664649785,-0.0587396104102736,-0.01642597208520555,0
280,0.019100274328207798,0.029347492149905258,0.01514915164253882,0.008035133417645295,-0.015000434123671556,-0.03613303951631911,0
281,-0.01712414157842867,-0.0502239685134689,0.014683521740104566,0.02216540672101201,0.12155274577468063,0.04586629594622076,0
282,0.060603574232969915,-0.029907021739927354,-0.03367554921984087,0.055814866702302644,-0.10838673275507024,-0.025865177913639376,0
283,-0.030404839329501346,0.011494250482337291,0.05503193797928154,-0.025644471497137573,0.0449886146143605,0.0435437058067377,0
284,0.0002874670988317503,-0.020990158406410348,0.025475418415083127,0.03160421220746983,0.0015161639822085825,0.027916643942906747,0
285,-0.08201171917922616,-0.013725202279301992,0.014037729119450984,-0.027211395192105203,0.1327158516034545,-0.000716979478918514,0
286,0.014462181615544004,-0.032664624114730194,-0.10438324805636034,0.10866042470884524,-0.031320423260967956,-0.021077968421078806,0
287,-0.05552456526870226,-0.02555927643609879,0.007147591374833208,0.06309926447909056,0.02571945379533606,0.035277075011647424,0
288,0.00599883137422791,0.01759488901360358,0.0784754513709001,0.014263623447660944,0.08374326503417066,0.014220249336583132,0
289,-0.05532960657875756,0.006798942314003393,0.013170511353512054,0.041819049852098125,-0.069486560934373,9.770256537911971e-05,0
290,-0.015715044880533893,0.010015548485896834,-0.04441096474882938,0.03214627300201945,0.0588962113565425,-0.04175885804065281,0
291,-0.009015586054853482,0.01284862896932763,0.025874574201595342,0.07136573627176367,0.013106667672429953,-0.030383394220978743,0
292,0.03785295219799386,-0.03343368123970878,0.0557771716771124,-0.0744987505954643,0.0410979856847298,0.07062822636132574,0
293,-0.002141658669670281,0.013226245863221091,-0.02761189628393347,-0.041618782131115736,-0.042485907218232914,-0.022065708727565844,0
294,-0.056026139621266915,-0.05953917651686779,-0.04853950896497776,-0.009550181367225113,0.043546135075019504,-0.09082852855564755,0
295,-0.06816715298968501,-0.03449659588818549,0.01575307971994263,0.013462962158548928,0.000275820463863805,0.02760868154214655,0
296,-0.03264037484227676,0.020430636767819147,0.013952405710530781,-0.025609287181274074,-0.06172987520729333,-0.06321805371845379,0
297,0.04832535888641469,0.07127401140892042,0.024452686818993312,0.03868709850830892,-0.051307175160428736,-0.09649056258249572,0
298,0.04203462035539941,-0.048667390473858846,0.01931766306592849,-0.08228385360404238,-0.05922022368231846,0.030980494763988464,0
299,0.04145258572812871,-0.024239197105198798,0.026942613920220456,0.04188927107366086,0.01903273370798982,0.048051544777545585,0
300,0.11112019965719433,0.2163238616067651,0.0687545977086574,0.19763908178180217,0.13919809164334798,0.2143082809708277,0
301,0.3820910730464867,0.33752339789766056,0.23256595349124426,0.31236150419989145,0.332057485899328,0.2440628807065548,0
302,0.7637762467565823,0.7046272412793464,0.6098641145209853,0.6974753568227254,0.6621005406650308,0.624169653617694,0
303,1.1623969201035942,1.081670778651514,1.2310074459122755,1.179665492100861,1.1038120619526834,1.1541798587780572,0
304,1.7999636394716727,1.819005575812108,1.8740088576454432,1.8564453787668103,1.948959315210696,1.855652165903283,0
305,2.7336872616854846,2.7783022841608176,2.813913257378862,2.7616056936257043,2.7227942781559684,2.877187564410703,0
306,3.8750806891977634,3.920257373212351,3.8568441340322313,3.7662842111534913,3.781542793920492,3.81979652166722,0
307,4.884833321275833,4.837145296047128,4.823148053953338,4.900680179173656,4.955722422362369,4.8587129911918305,0
308,5.866060047089569,5.916333014793057,5.860494779606453,5.968430505841307,5.844212266079093,5.767220573122388,0
309,6.595434928918904,6.585846849997499,6.5451528821151355,6.674590070407325,6.5768341321045005,6.599876082789697,0
310,7.013580605052301,6.944082637104788,6.998523412361438,6.900648129658617,7.079514388698023,6.973316797900832,0
311,6.809683319000873,6.750691568616163,6.709904565704905,6.742487872212268,6.74824628192972,6.697896825525612,0
312,5.9684388789859195,5.865362773925074,5.879347258993302,5.982110711349216,5.9467122225588325,5.858595483854991,0
313,4.443662839733447,4.618478124839927,4.6448409652149545,4.582496830459118,4.654617480479022,4.602360304490861,0
314,2.9421271821768418,2.937473026185803,3.0620895691357557,2.88634373553199,2.896707192571338,2.951523795245617,0
315,1.0597189759915389,1.1065801489516305,1.1353279379841608,1.1042542449434214,1.1148235772710913,1.083219784267407,0
316,-0.6711343103402844,-0.752180815955244,-0.6685151531864667,-0.7201241495259463,-0.641837502976038,-0.6860973626546611,0
317,-2.0929253664523055,-2.19992738788132,-2.1795781999321044,-2.1505069628745455,-2.0724734085530234,-2.034277215589401,0
318,-2.9749029140478584,-2.847164312142603,-2.8854391503906722,-2.941354050773828,-2.86154903841407,-2.8800158326036,0
319,-2.937219058440405,-2.9458005854049456,-2.9246816272870584,-2.9042538540811558,-2.9604254597639854,-3.0415908098407667,0
320,-2.5656161609409165,-2.590511777925744,-2.488735249986116,-2.52378307685197,-2.600690865974825,-2.4613955759511548,0
321,-1.7334251499424165,-1.742204567932828,-1.6879176069803687,-1.761496368788453,-1.6962322499666769,-1.6736508352013872,0
322,-0.6439900764787242,-0.611822253032218,-0.6952659173561402,-0.7133577389965718,-0.6593105585381206,-0.6598014697783979,0
323,0.4099969623432594,0.37810809856602584,0.4008616141414935,0.47837132342900296,0.46503339032538427,0.48539096538672866,0
324,1.2019306698381913,1.1941593107822714,1.2063915076997436,1.292342349812883,1.3016865078190947,1.2287080104123327,0
325,1.5628645202119742,1.5947198700061604,1.6199788360322882,1.5340016001100873,1.5853344043488649,1.6689156426577905,0
326,1.5514031262733707,1.5318272692974,1.4979203295217436,1.5001243244210605,1.5791570073509837,1.538840394362572,0
327,1.1144315736888288,1.1685567736055225,1.0767868389684192,1.058385221995604,1.1854280079686164,1.1317525261569297,0
328,0.5655115871215531,0.6773334640786197,0.6791825253657604,0.5579177721926732,0.55219166235292,0.5750783394346831,0
329,0.027892192870755762,0.02654844386158038,0.0574266013933086,-0.039500516909178836,0.029402137810667146,0.07278664784597638,0
330,-0.5767846005217249,-0.5095593182950626,-0.4326907247102205,-0.5826328585978292,-0.4668422340412885,-0.4869863084079692,0
331,-0.7490822311963218,-0.741476794512498,-0.7871544770213182,-0.749424808353742,-0.7730394775579467,-0.6895295070985771,0
332,-0.763942599724406,-0.7531189561958492,-0.7407543924557406,-0.7668403984086712,-0.762178833531991,-0.7179674707510535,0
333,-0.5451304141916793,-0.6197731553325049,-0.6362320361900586,-0.6141408522145236,-0.6349555511638446,-0.6105614247097205,0
334,-0.389643420929487,-0.35913351273882055,-0.3494818728241703,-0.3394134518195337,-0.3684830141857123,-0.34015982021012203,0
335,-0.1292316231727263,0.011295470902533501,-0.10761116500202617,-0.02599953932206045,-0.13981984795642685,-0.0954059770824097,0
336,0.15707048757591863,0.09862686323220796,0.16103461871711516,0.16025092379152883,0.12683299956074348,0.17383408145974535,0
337,0.3463751938069133,0.36657077059930754,0.26528200419597237,0.2601632447120303,0.2900214035176967,0.22476484777115407,0
338,0.2477371350963698,0.3348894399003721,0.3259845121053695,0.2577572437676443,0.29909782974202104,0.37230007602465054,0
339,0.2893466893752624,0.22785523565066285,0.20708411441017655,0.2879937082982545,0.3335553535299055,0.21064278439492362,0
340,0.10000760950161558,0.1154383298655332,0.08788789540006633,0.11171225217701786,0.09646360179995059,0.22743163777354705,0
341,0.025697930385766315,-0.06244853146898857,-0.028510899498437124,-0.0015810198090221127,-0.001616017744452275,0.006179363605921136,0
342,-0.03481227750010737,-0.021547771677053323,-0.10012119198366468,-0.05216434222335221,-0.07176375710651799,-0.04988211833355402,0
343,-0.0372860388479367,-0.057505693450480476,-0.08395474173143619,-0.15438786106924285,-0.034524930679873195,-0.1928474744310899,0
344,-0.19226204679888348,-0.1103612185800874,-0.01582301911179232,-0.0591169964594546,-0.08874418443903273,-0.10143644671028332,0
345,-0.08822297693459784,-0.07129148904889372,-0.06909991816994646,0.019816575767289707,-0.06635823867523438,-0.11702302044031423,0
346,0.01021550987093018,0.03794939861355233,-0.02761900414326509,-0.14390548252941915,0.01623717669046649,-0.0418924862626106,0
347,0.0167320834179018,-0.04116129732455803,0.0005297949119532014,-0.06154888266353583,-0.05669372105190168,-0.00424369755543527,0
348,-0.011780490637748754,-0.06250689005931348,0.015090692770362981,0.04095971130578943,0.048260229525085935,0.06724887422380435,0
349,0.0528689476886834,0.10311318018764377,0.02279165856409679,0.13762230076279847,0.01076165599198826,0.029246803606208866,0
350,0.05514225266273466,-0.052160737343316915,-0.05599360126278487,0.07666847265830325,0.0008397668209787351,0.052259865360922586,0
351,0.03523236551568765,0.024255586810656492,0.02267766280362741,0.011846112434366602,0.017021459466612137,-0.0645104107526643,0
352,-0.050140862477881645,0.05343923985826457,0.03655275446021382,0.06280086212287517,0.07681972301536573,-0.04887566728005363,0
353,-0.0016333630887223269,-0.057730109381478836,-0.012671935689402915,-0.07850097643818907,0.06393793322627275,-0.05829809743247744,0
354,0.05128626042129092,-0.03594201998555057,-0.047336690459198624,0.06322481714526428,-0.058129672227694024,0.032777837651250766,0
355,-0.01745559267938059,-0.0522810528071066,-0.08484571541587158,0.03593527984144751,-0.06487807367191667,0.12233738991219134,0
356,-0.05073820733383789,0.009382288815748343,0.0364567803500664,-0.07921323818923079,0.04800986014230449,0.01926916301702737,0
357,0.0047495203291316925,-0.10857813816892269,-0.05986354903002895,0.014233657437649604,0.06455754252631,-0.03781668123787407,0
358,0.046116748733601054,-0.01773171874218063,0.07683155812005454,0.03564366871495867,-0.014407372171999777,0.07063451527041004,0
359,0.033612634043319926,0.041777078612006996,-0.01773435935700878,0.01993550384795895,0.031325539600334115,0.01814287422107028,0
360,0.10947052665992167,-0.10195072868725218,0.006242678833662207,0.037506952946781316,-0.06312988148033424,0.02941700247340407,0
361,-0.040682589522457284,0.0030773992092317927,-0.10938494910232181,0.003318853360415766,-0.02041755165427231,-0.03441036326271237,0
362,0.021851176310804535,0.08443254220260882,-0.06097120204855607,0.03643042097294162,0.09134423687083036,0.026339038860072876,0
363,0.13551436795736757,-0.019239548045686974,0.05015198379649351,0.009909120192172912,-0.0001259119510219852,0.07417349514124377,0
364,-0.0028432177010331455,0.04212280597697143,0.06018712140292153,0.04587430223033192,-0.033507137352831555,0.04471177882660609,0
365,0.013671766169037184,-0.08879287695036216,0.030041473635859947,-0.07586452862641681,-0.0005487192090435234,0.010745559736578092,0
366,0.008768519577520714,-0.05192313053062625,-0.012961964154343641,-0.0968767993222503,-0.0035803688381488862,-0.02017021189752032,0
367,0.04438809893184799,0.039879356911691054,0.07849750904705206,0.041039172226459524,0.00470806713359503,0.00449207944265314,0
368,-0.010317672496429632,0.03081918478232384,-0.015220086561076703,-0.05808261290662731,0.0004050806383475098,-0.09305547251849972,0
369,-0.029662322858005078,0.046347352748063994,0.03905848567056376,-0.044106194654018924,-0.030615456775286102,-0.12082570752633097,0
370,-0.021159949123115498,-0.07799518724621302,0.0409225690441867,-0.03379338850052422,-0.026112500392748223,0.007275631239501924,0
371,0.004378668414139899,0.046738550194450654,0.0844542980225132,0.07806852365786608,0.00715483314221282,0.04533628636660782,0
372,0.06933247062153251,0.01907222767095482,-0.005063314079267176,0.010121721976830473,0.005294214117030233,0.02192507240892797,0
373,0.013072788125888395,0.023706579766389055,0.034885828744615,-0.07342641271014105,0.022497273085474,-0.13369593025485293,0
374,-0.03960032778026998,0.04180773001738738,-0.0035059120675492526,0.07500687787131449,0.035171965378194045,0.09456056950913598,0
375,0.056107723036303604,0.04913457600747971,0.045209762604299035,-0.13230205380725432,-0.05411846742386753,-0.010329822970983848,0
376,0.0490738537834423,-0.04887100080030212,-0.08128855073597543,-0.15871767619883262,-0.017671578784215443,-0.008910942349179655,0
377,0.01711663070107939,-0.031369557413400424,0.0012111954229477695,-0.006045675313161933,0.028223667541637954,0.01809688598298118,0
378,-0.02761442673120112,-0.03441796589253954,-0.07140610486253776,0.00888790217345206,0.018721428805810722,0.03350346796569138,0
379,0.11459314506382223,0.03133238144890377,-0.016664776537774043,0.05588245015438281,-0.005160578092480912,-0.005388752513047125,0
380,0.015090035326692312,-0.06184723163369982,0.04503596928335756,-0.06787873495708252,-0.03576317839394086,0.0025410486350880964,0
381,-0.04071837579614735,0.019883600909251384,0.04885725365966183,-0.13429259228766816,0.004319836411615996,0.016727159807178614,0
382,0.05882093439540177,0.030729856710464645,0.04953695213945768,0.002797894456314313,0.048102385230915055,-0.039599342027165654,0
383,0.07954988833752387,-0.006397814843582894,-0.027575926432075883,-0.05514051965721749,-0.04272251391931786,0.052482111088124325,0
384,0.02497622900036966,0.05476884297196632,0.022298903458994938,0.0022797559749062504,-0.0557056877843776,-0.08367648143490068,0
385,-0.0033116978196079654,0.004082301551029149,-0.06986780949136044,0.09919284382635546,0.04473574395340916,-0.0016189498354548548,0
386,0.019763337931909493,0.0096136800966249,0.039498708845574056,0.011488744481911548,-0.10074703176698994,-0.009259724263213007,0
387,-0.05292523958319468,-0.02614935446613115,-0.04990410007699527,0.0017999163253447053,0.04039384006508933,-0.043193958254828344,0
388,-0.028733048083655684,-0.04435687999963635,-0.08493110257418078,-0.016668333719041514,-0.0731072408216579,0.08107571407546728,0
389,-0.002323682989508406,0.1292758841342581,-0.05117735166701871,0.018384244265466674,-0.058071249832081846,0.03541169355269615,0
390,0.02627476235174105,0.06272855889477133,0.055911137004166715,-0.0704499481953804,-0.040846332948049686,-0.012173776519909786,0
391,0.03850598527563482,0.020652672972586807,-0.011968936627888676,0.0026773241593712094,0.009810630554954207,0.01723808133378258,0
392,-0.21021072951889677,0.0022716102523103166,-0.01963581379812765,-0.008981454252423977,-0.09215450367777807,0.0713796631920009,0
393,-0.0765605900728937,-0.06118753194956525,-0.09251012015507958,-0.030150297572171015,-0.06674333161103159,-0.05741802791327072,0
394,0.04419113246989071,0.0019631626437953487,-0.03937467006490544,0.025983445367433206,-0.11080666215651405,-0.04679630990123025,0
395,0.049086413996319335,0.027810114154487555,-0.030475920055683392,-0.024578244900973174,0.05275144663349183,-0.06249674990301467,0
396,0.0543407552313211,-0.02471875843202397,0.03478131960275823,-0.03939384259859829,-0.026917496005768843,-0.027447228835324248,0
397,-0.01584904487767495,-0.009339829815608259,-0.020036076356361284,-0.09746482033374385,0.06774986771078473,0.051231416012494924,0
398,0.01284135168030007,0.1095211215946482,0.03594340940565503,-0.039584332754385367,-0.016676489577858666,0.0035244639464206487,0
399,0.05125746164011998,-0.029255465167013134,-0.0070694608050230826,-0.026613906389217575,0.06328952001885815,0.012547849037061454,0
400,0.06776874489793161,0.21383246957320576,0.10205271553186676,0.10868149274698663,0.07327912528782904,0.07463658164610878,0
401,0.25966016074232967,0.22100115069350995,0.3064941441891137,0.4120467462412057,0.3535029643498116,0.21795103596703946,0
402,0.5901397987203978,0.48096159852433373,0.5240004674214052,0.5471167613222705,0.6614640807459435,0.5513477542703548,0
403,0.933611236617051,0.9753568200686661,0.9741519687664946,1.1254299042231861,1.1131280222430362,1.04086883924369,0
404,1.648286678690978,1.65489343292744,1.65836831963185,1.6613118868829544,1.6175609036267562,1.6977892850915939,0
405,2.5260605362047777,2.5276609444509184,2.513027837924212,2.578222739029815,2.455704331107809,2.5134067399901863,0
406,3.636866732986955,3.626839346460462,3.565626592862686,3.533456078070062,3.475738463630472,3.503520747667106,0
407,4.6383145539704795,4.549089181857103,4.609443752253417,4.685835143463946,4.637434030520118,4.541426627289251,0
408,5.668948593632301,5.627925611709204,5.748413057644783,5.638354975004468,5.623477674880273,5.637081603883981,0
409,6.541737924481665,6.450026311376108,6.4679736966372445,6.488204487592164,6.497263101611638,6.451573302710577,0
410,6.982647477381686,6.88809371490893,6.916352005949985,6.993569749050765,6.9499252207627435,6.908694231779704,0
411,6.875085006466985,6.874593446792367,6.967403654561692,6.787157387134815,6.8342187918120265,6.925161318073027,0
412,6.197266631867296,6.23434441785485,6.049610867032694,6.1091314606459,6.052374619576891,6.1029807124686934,0
413,4.89347329811537,4.962388792575849,4.891351697193036,4.9793065703624,5.013667930763218,4.991077427124466,0
414,3.283816508910954,3.363218668504818,3.3446046682614083,3.388826296817981,3.3598032381680345,3.335155348083623,0
415,1.5912818543608864,1.4490507923234035,1.4837257872455285,1.5059848706805654,1.506974758851797,1.5157601038045403,0
416,-0.29600799215554097,-0.266676248352987,-0.24094545726738748,-0.26796373371104765,-0.40316244214046293,-0.2640486215761715,0
417,-1.7424054347613416,-1.7765006625797948,-1.7214449740980537,-1.8082583914703079,-1.7173299476283708,-1.8864924285125344,0
418,-2.7746183922858307,-2.6855851080446573,-2.6774733015541723,-2.8553497017285783,-2.838316703002921,-2.7633313833117716,0
419,-2.9219683038423843,-3.0172337852834787,-2.973755973294902,-2.9686260521740464,-2.990259352329095,-2.9688707306028723,0
420,-2.6137723675358364,-2.728571129138004,-2.6698802455636925,-2.7617421296635123,-2.7226916460842188,-2.7113586829123517,0
421,-1.9593010341104382,-2.0194983929974146,-1.958391534206402,-1.9238789204953475,-2.0355601976181408,-1.941500279577478,0
422,-0.9111082630544912,-0.9525409973361725,-0.9810393632674345,-0.949273877617527,-0.8781679762427621,-0.9526668617365319,0
423,0.12609028242118137,0.17003053212948596,0.21587412695261604,0.15810814164128192,0.09465786269623049,0.2446946584033916,0
424,0.9682306238416089,1.0126137568096119,1.0807353712372665,1.1086541598574196,1.1365013404402593,1.0678030625726458,0
425,1.4890117375269434,1.5361712897782742,1.5148221226152725,1.5752366647902003,1.5382415981839357,1.5283077427400589,0
426,1.4695018060880447,1.5963359275136269,1.606733332095081,1.4672631543013361,1.4465023892943445,1.557607973779533,0
427,1.2585116547612696,1.2333541280663425,1.281780546811151,1.2764318758748874,1.2169119865475486,1.2951694869283272,0
428,0.6860363833108467,0.6901657586482074,0.7962872916811843,0.714690938947113,0.7919645662331323,0.7653646677482404,0
429,0.20774048608837808,0.1694461929866913,0.1892376359112123,0.18323300978443488,0.16769344680117992,0.2161173991682898,0
430,-0.3492129253361466,-0.4218299698651896,-0.369139996480404,-0.3359054243057524,-0.39800540270133267,-0.4165359344411645,0
431,-0.6017528406556788,-0.6791485254397243,-0.7273636751174677,-0.7620427392623104,-0.7175520481073706,-0.6832270789133453,0
432,-0.7899670235852668,-0.8120170205745487,-0.6952129916422932,-0.7595024430441826,-0.7818943107154651,-0.800446437854908,0
433,-0.5484422301946447,-0.6027049405220473,-0.6483617268331124,-0.7384038975908569,-0.6614169108358865,-0.6409050395957473,0
434,-0.4177429396427748,-0.34673820239683967,-0.49460757757994794,-0.45121640080009484,-0.35457981906874647,-0.41977340576360567,0
435,-0.05350347615129461,-0.052798840603094435,-0.06503538081983981,-0.14144961303021103,-0.12192522074882342,-0.09774678999127166,0
436,0.17235275822758023,0.09967979561892726,0.17320667410728227,0.1400121616451152,0.20656560749598868,0.09975829617338947,0
437,0.24514313873964824,0.29760259047605836,0.24163399815430706,0.29374352343383014,0.23400240920276608,0.1902273456940381,0
438,0.3063616026820934,0.3885634087353351,0.2916529551899215,0.2699649640884597,0.28712412010420113,0.2606611977894834,0
439,0.323240475737901,0.26890330073772434,0.2691942460766697,0.34330140634748935,0.24866444615341404,0.29003852202616043,0
440,0.1986906339390773,0.13801610494712171,0.18839523893293983,0.21099464878421795,0.25216318151981393,0.20060654402690606,0
441,0.020185553466744572,0.031670000943582216,0.07644612168021514,0.04886652508201603,0.08076188588400444,0.08681747689738381,0
442,-0.010844817641331037,-0.048336861853423195,-0.12856777533059058,-0.01681627577008151,-0.06201629582762332,-0.14297678980737846,0
443,-0.21650917645272078,-0.08907168095642998,-0.03386721846326066,-0.14920494701698042,-0.17208118568068143,-0.07547513305781814,0
444,-0.18257589069149963,-0.21856060628963184,-0.09421656696259445,-0.03955167832572015,-0.19110967169705723,-0.15648613538039893,0
445,-0.046101809994457836,-0.09187412657738722,-0.11542435096938977,-0.10616381982305159,-0.049838852047894386,-0.07942143291081563,0
446,-0.17448398726799785,-0.10329758043141168,0.08540384395428564,-0.0700763338353001,-0.034966992928062005,-0.06310340464665354,0
447,-0.015590917094034425,0.013359129732218616,0.0032497222885291537,-0.004997654500568966,0.00871652059643702,-0.028495197128687227,0
448,-0.014106306238047577,-0.008210086610658689,0.08471392689845929,0.00624651884514852,-0.07155623815806966,-0.09716179220102106,0
449,-0.09018629771468342,0.042166461978606296,0.06778976299415151,0.01675798231610593,-0.0044405489919275565,0.0070525940376703206,0
450,0.04455822273032639,0.0972690712105938,0.0913891133930112,0.022861685691669128,0.019803124749406775,0.036399175546688846,0
451,0.010697264435496047,0.00833001059518352,-0.05072198753633522,0.019882002903195507,0.08240027280764407,-0.047964135026687504,0
452,-0.06503464911147887,-0.05874950021137326,0.11034175753795543,-0.06604033776558828,-0.018484744373678245,-0.021581708255539886,0
453,-0.0007142410056929828,-0.056474453001298414,0.03162344265019643,0.018363577827390738,-0.014254447965454374,0.029738791311346893,0
454,-0.005415817676759373,-0.16216784725189662,-0.049637489593836466,0.0012639247667852764,-0.047895631338821694,-0.05477806933466809,0
455,0.035667108888363816,-0.09923376464251704,-0.03291524508313015,-0.036166745631572364,0.02663136425910518,0.05172001798263239,0
456,-0.005750994645393297,0.036693882959783944,-0.011276780923941056,-0.04384675099542688,-0.053088161442831905,0.10579832537371195,0
457,-0.016314757996524556,-0.04340495912243243,0.003973363041076828,-0.06318584191939111,0.010982983503968882,-0.027049951321233306,0
458,0.0004894535942262384,-0.049774865085767846,0.01636664910622634,0.05710582154925539,0.020263739774951665,0.058523335481023474,0
459,-0.12666080700749047,0.06585443987324782,0.0043847175023526645,0.08251050176274763,-0.018870622752692405,-0.009460342272110846,0
460,0.008591781143047213,-0.05053372428064756,0.003595430143531018,0.050990076655029165,-0.04668014847295581,0.0768810354474542,0
461,0.05163546147041569,0.04801342276137185,-0.042724268335612325,-0.053882802522481905,-0.1501083099695265,-0.004245289786394915,0
462,0.037099881645814674,-0.03466883370821047,-0.05957834887660416,0.057538335104246253,0.04349899678861213,0.02708612299571368,0
463,-0.0800120398147358,-0.07214282113381391,-0.003797952474009722,-0.07691870510588077,0.007714048390443424,-0.0825136751519658,0
464,-0.024211613786594994,-0.0037130081021352255,-0.0368300707750882,-0.026739291709272757,-0.07503394546050844,0.0006007865095049771,0
465,0.03982894964975861,-0.04098124211940984,0.011772177813607272,0.03336181339845199,0.011370483072853443,0.021621261543308182,0
466,-0.039506990966833196,-0.048407773542308165,-0.02064603386167068,0.033137858821165586,-0.017153329653360912,0.019334866285967634,0
467,0.08583589632962428,0.006467256678345158,0.06545911180482372,0.0847589156563722,0.01597312206357067,0.09647256096450212,0
468,-0.015537811540772337,0.10805877749441788,-0.04659316641966214,-0.019687712213196356,0.024855472777257737,-0.0011000385979230848,0
469,-0.019203838697672268,0.034920145718412024,0.014951331579234065,0.022403867102557054,0.0004894218776806478,0.02161056071975214,0
470,0.015710821351818817,0.1294111417893251,0.014878499352878622,-0.10730292179185412,-0.11540683723701797,0.060814369647990016,0
471,0.04157059543828325,-0.006103030129064737,-0.048392027532876906,-0.07640491224203577,0.04043270662070867,0.03287748798060773,0
472,-0.040096251995598894,0.10095329313323596,0.06679189254886667,-0.05296265642746889,0.08088291815726478,-0.0035338110138764334,0
473,-0.02157253459047398,-0.15043537084881575,-0.05429440193737993,0.04955873303596608,0.1434805410211272,-0.0014681998746182865,0
474,0.014175763834568237,0.04405977485369612,-0.036341228036561854,-0.04094716272303358,0.03318728661129198,-0.011709647041734,0
475,-0.03080874609227913,-0.02445759402540899,-0.0017452179678229306,-0.06672426782474432,-0.026521261916362362,0.05016526635208255,0
476,0.02154284841625746,0.027667769067510714,0.10960555789993837,0.09473066864802687,0.003361362646429628,0.09595428852117104,0
477,-0.015057846353889985,-0.04320493860221239,-0.0539091676061792,-0.018756996250067163,-0.0013438788161471344,-0.08418571998822022,0
478,0.04252548223824735,0.006862129819190043,-0.032792684018874085,0.11634740676050839,0.008857211336906163,-0.01660051718187423,0
479,0.08105979983755492,0.04683456993346213,0.01299212757493847,-0.021486293775761587,-0.052095137634853954,0.03704618078532649,0
480,0.029102037055371774,0.050868024199889325,-0.03305316684020254,-0.04361552367408092,0.023784335238901978,0.051370161106542495,0
481,-0.0847091248693124,-0.038469412774091515,0.008849188066665604,-0.03249621012824926,-0.12351396201044136,0.09053463603462257,0
482,0.02912421032922443,0.09343731631872956,0.05416137959220253,0.025483042591135135,0.031063506087254854,0.01511556617626364,0
483,-0.042139645210551885,0.0343165801286579,-0.013349905050470897,0.06574216546309909,-0.052756466135311396,0.12251666045846435,0
484,0.06606615347241475,0.038588486101973435,-0.02636311209619909,0.02904141344748302,-0.0051018897478983015,0.029738471070619305,0
485,0.1525261915909868,0.11068794316937108,-0.0953832733990214,-0.005412593276082893,0.1055285086646334,0.1075500930432784,0
486,-0.02375666115092173,0.12103167030891769,0.02590413456066888,0.044211775329466914,0.04472045254565499,-0.05393961197355893,0
487,0.017135812645914256,-0.055919135790456896,0.038495499510125604,-0.03056613093240947,-0.10697967075790579,-0.037024968657349805,0
488,-0.08228452846131129,-0.08344274934114103,-0.08128695357840322,0.06053351969458481,-0.007976578948186503,0.050760060226733766,0
489,0.03163651697928921,0.019287453486186275,0.07405088509357323,0.06089128538124226,0.04929987633865282,0.12061541058168906,0
490,0.029861653337481867,0.06772692109671456,-0.03714186063607048,0.008236927355137072,0.007399844312953264,-0.015759134869988062,0
491,-0.056096503472456115,-0.06800100198122165,-0.07932869439549595,-0.010742481622838588,-0.0005896306333298231,0.029664766703532363,0
492,-0.021175376207512937,-0.017662355743474113,-0.015046351584040206,0.05191296680197134,-0.11741445284784441,0.07189262031346257,0
493,0.09682113438433038,0.08033856855790314,-0.07551951857673572,-0.004418291715253621,-0.003504347666385673,-0.025158872434345142,0
494,-0.030471120350078713,0.016897329949464756,0.024551704422406805,0.02331883835834375,-0.028005118433810684,0.028805823741271275,0
495,-0.05639510199533056,0.02776047951506031,0.00937938658503365,-0.019776981534091857,-0.00037376720193879566,-0.03263946819962303,0
496,0.029497672413554422,-0.0035968594876227694,0.06628428906289183,-0.014691613313955937,0.05247364390464187,-0.03840258741769141,0
497,0.01616729677816102,-0.012091301422843835,-0.04604062587745335,-0.039324534202879104,-0.0225830854692955,-0.027662246696554274,0
498,0.0013731709600638057,-0.04317073006668009,0.04758030171569733,0.029715366912214453,0.07039366646330751,-0.09034624872057719,0
499,-0.013977502133476455,0.0697438194040664,0.008872740203154022,-0.08395381314564246,0.008113986421312449,0.08414043297388878,0
500,0.09024013334489182,0.13571857617976915,0.07117264968320057,0.11005825900025819,0.07369612164785869,0.025630404933651735,0
501,0.21522794078799443,0.23763461393965987,0.1487727932877492,0.19033753918899884,0.1812018578173529,0.3028798380719374,0
502,0.5008726236728468,0.5682294991085868,0.4520657545243586,0.5657697967032811,0.5256199171858994,0.5125950560293215,0
503,0.9709072648928601,0.822562616920864,0.8443626027930471,0.8981076106942897,0.9324958565320887,0.902522713407076,0
504,1.4848102083992853,1.4510632270446386,1.547400685306453,1.4717669959812434,1.4142933708346108,1.5710685267098392,0
505,2.3912315316900234,2.34712842239024,2.347504871580822,2.351112698898137,2.2885144291098674,2.2230318335639936,0
506,3.322872016780566,3.343411493403081,3.3216222453310835,3.3030060981551093,3.3199006359857695,3.304207201087896,0
507,4.354863778067198,4.444506381402781,4.436627577735499,4.393480104373958,4.343634552396981,4.404741551504145,0
508,5.404621789982687,5.43305954020223,5.463119534109844,5.371194464930554,5.251507832125404,5.4310197202370825,0
509,6.284628026408993,6.343596131818978,6.267161690492128,6.249670521939831,6.195994403671007,6.310678216531171,0
510,6.904931823581168,6.857635925999228,6.8638249518841095,6.8503373682088835,6.894061590288388,6.881549927324198,0
511,6.934754976874473,6.936051140408835,6.980629958641328,6.980972731297071,6.974439430052361,6.966439617786036,0
512,6.426006707809291,6.331151977163578,6.357469402203333,6.42363143169232,6.441059282230846,6.307556294329131,0
513,5.343781161313822,5.260619856144317,5.262278198309497,5.221384089365428,5.249475474295459,5.279669220220732,0
514,3.7709703086294306,3.7226797727174503,3.684329655084786,3.6990506544092256,3.737114964224212,3.7766850730751544,0
515,1.9614695187556397,1.9435288160261517,2.024897917780915,2.0059915431118847,1.926283769390049,1.9829367621344849,0
516,0.0851136958307191,0.09292281092699352,0.1500421036919145,0.15290275226091618,0.1199274996181724,0.18416966620525427,0
517,-1.5486802379278426,-1.4681666400407043,-1.4908072353911699,-1.5593261795495406,-1.5301259948902977,-1.5023210970518053,0
518,-2.4715614956926895,-2.6561393668694837,-2.613836206142143,-2.5837878622952655,-2.6206243332118957,-2.5844338550439145,0
519,-2.9840971432883596,-3.0074532879180405,-3.054702203969071,-3.0661775661162594,-2.9016164070343398,-3.0139577722477924,0
520,-2.8713751090237354,-2.734557220751698,-2.7719851298399982,-2.8124844006956935,-2.853840430676329,-2.7762599232520238,0
521,-2.1985285494065656,-2.1992306317479153,-2.13758331150018,-2.180529459258236,-2.177967051505294,-2.1213999744782908,0
522,-1.1714438359158028,-1.1920663968241334,-1.1654292270667173,-1.204402347805229,-1.1921811713067603,-1.1809998582022423,0
523,-0.12455724958641565,-0.14672014468108763,-0.051435800131857196,-0.09565161907530939,-0.0631657045066882,-0.16470584635256103,0
524,0.9629978258132877,0.869655000405287,0.805767780456785,0.9293901266925285,0.8567698434399342,0.984211687611461,0
525,1.467243181905355,1.4574003212870528,1.503147209959915,1.4456245621699932,1.4974763580125652,1.4422515698019187,0
526,1.5643590172698125,1.5440584916132487,1.5547382860119399,1.6234854665492278,1.5140216260660104,1.5902225057410428,0
527,1.335349821258424,1.2946786610258199,1.312883365095227,1.2824539745210808,1.4218988699606432,1.2570516695939475,0
528,0.9437769275216895,0.8764836664809262,0.9445417323288174,0.9423367839933212,0.9396556970934435,0.8369782080201602,0
529,0.313944064400768,0.29093933420801515,0.29739497749574534,0.34051279701439846,0.27805842503702805,0.328011356552097,0
530,-0.35641366284450227,-0.30490468878339566,-0.2840216042656329,-0.2867175549624289,-0.27278940021926223,-0.3398478912557833,0
531,-0.7230028408255752,-0.6040007946479906,-0.642825536043667,-0.6675108866405134,-0.6671586777558502,-0.5561158038325301,0
532,-0.6919737460149649,-0.7710959642987821,-0.8569194241608346,-0.7348969043779066,-0.7864253481594614,-0.7493546002996633,0
533,-0.7597485633057944,-0.765210979854289,-0.6745102893495529,-0.7040068943614485,-0.7522337096489821,-0.66637509885174,0
534,-0.4845286532823446,-0.49321466473976155,-0.4926596772746532,-0.5000426057611023,-0.5311608277783293,-0.5126792000187764,0
535,-0.20612472151856964,-0.21805636043912555,-0.17359366586779504,-0.18961267026932455,-0.1975511170265034,-0.15912177869148608,0
536,0.13866864883067517,0.10523254846879376,0.03783852559741184,0.08526420696191898,0.024972529654082982,0.08523473965467168,0
537,0.21234449493638388,0.2605898660722636,0.2889353183704245,0.2446226677573955,0.22068425649139822,0.17356398381336968,0
538,0.2819571833643597,0.30549719526942626,0.3072350921482231,0.40732870098104734,0.3046536949589478,0.35464950191377215,0
539,0.31870683599752714,0.26794043927376304,0.2748694658964554,0.2987903610117708,0.3268999957715592,0.3023821230540444,0
540,0.15047475549281608,0.21138682105364243,0.25480854476866344,0.11496075330167954,0.2922308703191392,0.2499509356895829,0
541,0.06931697811055805,0.012899965752064486,0.10199756437011676,0.10940908577992092,0.14997483801421127,0.07037370996426749,0
542,-0.07386109458641212,-0.08465004039688653,-0.08412179438017606,0.019374279715033978,-0.038149353322189036,0.06850902253752886,0
543,-0.16828741455552615,-0.12498942692974524,-0.05905371165714771,-0.09282736849929916,-0.10383795510628938,-0.14005851496723287,0
544,-0.030549531367937158,-0.13274137876232606,-0.10563189325273628,-0.26795067562886044,-0.11099923508311625,-0.1879773194604187,0
545,-0.09577079298468333,-0.13040101890014238,-0.010853736239343506,-0.13202561513221306,-0.05716533298765602,-0.1616272486361215,0
546,-0.10949120504444151,-0.10782924906018365,-0.0820665722349345,0.006417333604367068,-0.007029934916272275,-0.017658682175305543,0
547,-0.023176587905275433,-0.005335878207035006,-0.03625413552310082,-0.0640417587269976,0.007883284188617702,-0.02979938606258333,0
548,-0.0059658676908599245,0.06153820513353153,-0.032703522360524956,-0.027687843384970483,-0.06732230353264516,0.16484757519889298,0
549,0.05174295234893243,0.06576897883168914,0.10492434452169205,0.0949555149519164,0.01952508346992257,-0.0011984746753063574,0
550,0.0524474734261912,0.02529550423043154,0.03847709476312855,0.05789794849472718,0.03984063446154213,0.05162614707973451,0
551,0.030180840046962584,-0.01207451540839178,0.03726707252855117,0.01047713098120733,0.08981485285121088,-0.019077269402004673,0
552,-0.055536860249572384,-0.02198313081293627,-0.02600265605564455,0.0015885250408849381,0.10213819265707026,0.003719364549757907,0
553,-0.11691061995936022,0.005680930066996165,-0.04551912199214023,0.023634150275045472,-0.08146850799564685,-0.06459833970723809,0
554,0.0033388599776024474,0.054736041664099754,-0.007291726628611997,0.11818731104048806,-0.04212959103388195,-0.10975585789703482,0
555,-0.01769974661895513,0.056557775049068025,0.07491163802164735,-0.004840919347544708,-0.03734677688999399,0.06932894648305725,0
556,-0.050491852256873845,0.030336456633772373,0.07538853348464444,-0.04653812911810777,-0.038530041673925264,-0.0018543531035461192,0
557,-0.05613679879792055,0.006623607094251139,0.019469353177153863,-0.04353901783695002,-0.04426340632711395,-0.02828623659210709,0
558,-0.027861129422178908,0.04762738578563582,-0.08106617306020658,-0.08359847761425172,-0.02790253439991991,0.02878006689701608,0
559,-0.0808251801238168,-0.09603183489183117,-0.030666982309758877,-0.0328854164231861,-0.03591049042006375,-0.10580709390172861,0
560,0.01587566470824252,0.0740892078405363,0.14596035685291028,-0.030601345429046987,-0.050833727932444096,-0.007824042297628463,0
561,-0.09546751027245876,0.0366373851354149,0.07532086110932482,0.03185349152659621,-0.013155616162860744,-0.07640058391545834,0
562,0.06395809437170814,-0.03632471534526618,0.008839796834891837,0.054904106747570056,-0.05031309577412811,0.000845205772559129,0
563,0.019829599909814272,-0.03127559242818173,-0.02376328554084296,-0.018970136445805537,0.014236812122490254,0.009198815852377352,0
564,-0.04231945685191446,-0.010108228310572861,-0.030781687496741855,0.0004968970322850911,-0.02651687064527482,0.052963133750568665,0
565,0.017515179900690108,0.016996473681069497,0.043309546927901676,0.03067104998422864,-0.020480872735669373,-0.07165043906152917,0
566,0.02024340710591019,0.017194966051680048,-0.0005180730771410171,0.03188956777511642,0.0379219758623679,0.07379730220651168,0
567,-0.0020962401963881393,0.04030545093460592,-0.05309604613132913,0.01796668067593588,0.041016778728088184,0.014997916018023284,0
568,-0.020664420148888394,-0.022158236398449264,-0.025517472276908364,-0.09565966483395444,0.02701376654127973,0.024993564977754668,0
569,0.028790293742904642,0.11448643527971848,-0.032102980020027407,0.0640869252168609,0.07953150771596133,0.01202526895010213,0
570,-0.04483790866215561,0.004916225700036441,0.07674651073556621,-0.07308632196764653,0.06167500649939196,0.0280970892725187,0
571,-0.03927707679134171,-0.047477942161433334,0.00864787263161152,-0.025233238975308964,0.027231948958648944,-0.11189462925756408,0
572,-0.0030983899881531574,-0.12094476353392927,-0.005970953859965116,-0.03417797348948239,-0.021795813623004374,-0.084022139187874,0
573,-0.0003332906606378764,-0.10628885291941008,-0.07955042243864971,-0.01447302644863833,0.02180493623927032,-0.015534562342041387,0
574,-0.020349365510066168,-0.080073774596136,0.07816815459964185,0.021799619045220115,0.015582302001598965,-0.04222392995899032,0
575,0.03593534087632293,0.04521294330159228,-0.03572364030803053,-0.09206971958083739,0.05332369512878727,-0.1362048449576816,0
576,0.12774630506598156,-0.09278405420730965,0.009987100570264485,0.01970798314479117,0.029430918395716165,0.04888236771944447,0
577,-0.058684420375740884,0.04126230601507507,-0.04334164119275386,-0.021180317683065213,0.09266147737535697,0.010416826003815044,0
578,0.020436454583116794,-0.04462730789683718,0.010627748820881836,0.002339006001066714,0.0724843705768488,0.05003798539131675,0
579,-0.029758110001122842,0.002877520106473325,0.1069353334326131,0.05058378090113539,-0.010352647851518942,-0.007344167051797307,0
580,-0.05231083103947751,0.0587383275764065,0.058791209396066246,0.013005904650996082,-0.05664982883352579,0.0031111533511401375,0
581,-0.02513161672103365,-0.03060035313884986,0.042965416032764644,0.08588432638844856,-0.03782784345203263,-0.07806441808762828,0
582,0.02108445902557056,-0.02714147446795296,-0.05911612817234706,0.07790486012915789,-0.10815365850020872,-0.0023577399823336846,0
583,0.1050015369302446,0.07208780513690563,0.008790172149538828,-0.013354309994865093,-0.04434993076541542,-0.009339407741019665,0
584,-0.06284290634656228,-0.041540042747674484,-0.04491553162093988,0.006535831340036191,-0.033664487449190275,-0.01925660582011855,0
585,0.004392019811603017,0.037552526261332216,0.007334289497608262,0.007129094256230008,0.03938181555619281,-0.05661219861391364,0
586,-0.014926390314727549,-0.04579926707012979,0.033125168764613556,-0.07154838856988549,0.01610911729432379,-0.00040661366015163063,0
587,-0.004800304141321097,0.05478570015528882,-0.018209417504811032,0.038918247773123214,0.07689305895674883,-0.057708210905058906,0
588,-0.02923662871457262,-0.04557655072620481,-0.10365474646053842,-0.04285417888226215,0.041378588982639755,0.06721256707045607,0
589,0.02183113713216145,-0.03322521488229833,0.033733812165842286,-0.02875303313287779,0.04048738135501952,-0.09285876956592429,0
590,0.13191802762358407,-0.10110353381871919,0.014927286616529718,-0.06716101593353982,0.041476019842518745,-0.04283465906175251,0
591,-0.04236650036207148,0.052770095087292336,-0.03417892321606693,-0.004621642966635203,0.04943399441570313,0.06159293460306492,0
592,0.004036664579681887,0.04664340438591567,0.01771990456903447,0.10134724245401415,-0.059156169802776,-0.05017827343339182,0
593,-0.11186508945980443,-0.11113586187029298,-0.07690628667153891,-0.07040281717110518,0.003804701252806626,-0.014662121723272784,0
594,-0.02410511795414055,-0.03153359502426675,0.04945005811043172,0.008832877534338195,-0.04038113078842939,-0.02138076954773157,0
595,0.11002393515098922,-0.04790019622610075,-0.042601060901598195,0.03388050682465774,0.03847698310029978,-0.013881738000749344,0
596,0.059190649987553835,-0.036074500778046595,0.07569321016083068,0.03621279388358918,0.08095918300158432,0.08078629591818674,0
597,-0.038631617429174835,-0.029991541605135952,-0.024566261476834717,0.020780925194476798,-0.030285809340880522,0.010894589944025371,0
598,0.010030619548022607,0.05499997020973939,-0.011269399524103638,-0.011065576617902218,0.04826388189560968,0.005705340296143815,0
599,-0.07260020409513188,0.05943330733286976,-0.020819424044033183,-0.04052838912658525,0.024422209644349414,-0.009880752793023511,0
600,0.07745914590045104,0.06641879653957343,0.04216494186243252,0.06986615126936038,0.08487728876997465,0.14611025359378657,0
601,0.09802562791425398,0.19489138231535716,0.2412908601564963,0.1679204445435999,0.19533811726661815,0.1820701452805249,0
602,0.44138702228807486,0.46513759712980346,0.3213617002726275,0.446452614936388,0.4280574885511178,0.4757738919749508,0
603,0.8068843922601893,0.737528633644714,0.656821089545726,0.7785334119322898,0.8118056325743603,0.7760149960663465,0
604,1.411163312092882,1.3981381510227713,1.298208190353074,1.2637841769231026,1.4018179547081888,1.2791170143576618,0
605,2.0750223192912856,2.1110093571540354,2.1101847698896377,2.132528994270489,2.091259829762273,2.02204438948426,0
606,3.029577137204796,3.0645421068303325,3.0290172522553322,3.0285980033965094,3.090064466785674,3.050091649003834,0
607,4.142665584625532,4.094688946916773,4.113077315541311,4.079831519914803,4.195645102005196,4.285630560979487,0
608,5.182650109438336,5.115012520758514,5.173417078753675,5.261914692795629,5.192096423101955,5.2744500973444515,0
609,6.128591748837726,6.128641260893691,6.134132928156383,6.127901030302265,6.153738759818569,6.159157345746084,0
610,6.729547060439067,6.782777338420383,6.770652149634019,6.708423960072991,6.757624763833282,6.7974316763847185,0
611,6.980294407276885,6.93865785059843,6.952898706335493,7.020300630754512,7.03205416902792,6.988201938204492,0
612,6.657493270794968,6.634711746315713,6.564446442657686,6.588490809814013,6.512489542274451,6.576186236183488,0
613,5.542456227903529,5.544770553646339,5.563870762584141,5.629594571352904,5.591038603699659,5.551525366152291,0
614,4.132925601267201,4.094635657392522,4.054343151735606,4.088150723357803,4.129107349406874,4.188593945356814,0
615,2.385824009690315,2.3868928435693078,2.4137664685859956,2.4574285499025637,2.421287330282505,2.4435205738269277,0
616,0.5822429528146247,0.4138210389782025,0.47056677455263946,0.5855705826823531,0.4967823938815316,0.5062140663770989,0
617,-1.091786959706962,-1.1901224914286104,-1.129389620670103,-1.145437391155767,-1.1803094559037308,-1.2140500984029452,0
618,-2.366059161358447,-2.421957085049624,-2.376854724451253,-2.344262501761649,-2.339242275823241,-2.4110241005381017,0
619,-2.935521493596829,-2.9064628982575234,-3.032034156100276,-3.0143825871478214,-2.9723119921850443,-2.9766635989724235,0
620,-2.8381712211040044,-2.8622623772797984,-2.8790637635901053,-2.8824601906543696,-2.9263505054247307,-2.9189208341675403,0
621,-2.3332409196462995,-2.3099350856851215,-2.3857496500391524,-2.2518282980430455,-2.3699829237913126,-2.3701988680108386,0
622,-1.4710970475646719,-1.454581539557032,-1.4054335604828287,-1.4241848043347412,-1.4005267725246857,-1.3851322550946548,0
623,-0.37608036062951794,-0.2981641112918044,-0.35267439413990714,-0.35435396603737684,-0.3109679176160798,-0.32183106377064324,0
624,0.7584389231410836,0.7045732007568535,0.8075166525535128,0.6367404526829409,0.7509366982131509,0.7141107906583263,0
625,1.3659853463887333,1.4019626434278805,1.3399397417193855,1.3154720044950654,1.3715240181670723,1.3079009578288368,0
626,1.5484858196164855,1.4818106023266604,1.620158684791203,1.5524765614408662,1.608275955562251,1.6160967861624214,0
627,1.3596771474900111,1.4589568158093729,1.4676190511146296,1.4318531420176581,1.4544936071794419,1.3627376978495698,0
628,1.0465772999779965,0.9240819974259765,1.1138878351330403,1.0543619504687975,0.9887378747719228,1.003848928814126,0
629,0.43573879261947795,0.4652472407330276,0.4229485875744549,0.44964504593319093,0.5471505441817979,0.3663766634303734,0
630,-0.13289388886367456,-0.11217003034070076,-0.07553140783203863,-0.1678776345710673,-0.12212823987528866,-0.2075863696041283,0
631,-0.5247578713302036,-0.5840099338712461,-0.48760684708788005,-0.5402048587342029,-0.5222092134109653,-0.5054574532082095,0
632,-0.6846831303421609,-0.8543722861997642,-0.7824444409564051,-0.7998646977362643,-0.8233479015873891,-0.7841338231609875,0
633,-0.8110561079950033,-0.7727828715527838,-0.7276985481980878,-0.6774038521547576,-0.7456072627836996,-0.7400360036731075,0
634,-0.47975676841871556,-0.5913169934015395,-0.48510577553499945,-0.46908161020391614,-0.5535464896543194,-0.529305182025281,0
635,-0.16001041186133175,-0.19352668538128476,-0.23886928003517535,-0.24283142057013396,-0.1841333187256572,-0.3112631496152505,0
636,0.0224802217270487,0.01672768485980261,0.030718093106411725,-0.01320177118145271,0.0354155150492578,0.03333546627937229,0
637,0.17837593027868928,0.20154726577638288,0.21671864845546562,0.18155788866652373,0.19306140171245514,0.2873381803455162,0
638,0.24765937037738817,0.3909525501016499,0.29325484261193313,0.3040730547383437,0.3823721138626719,0.3356237414239337,0
639,0.35288229462592885,0.2516562794347923,0.24856320123115927,0.3926397290753658,0.32833852233635685,0.30630293779627904,0
640,0.2495597537572541,0.19889906027533136,0.23597974634543858,0.20154012560865653,0.26542749194335685,0.21294208556691524,0
641,0.18058779825536908,0.07663903134790623,0.03730620368198323,0.11123395942106472,0.11787887301194519,0.13976811007260878,0
642,-0.027118512392904106,-0.011391449876655987,0.032276135885727864,-0.048439314019156104,0.008755099349458183,-0.007398654914508878,0
643,-0.125571265842996,-0.09809887277857285,-0.08647170342210217,-0.11926721583121769,-0.13431423864862224,-0.0666884719767233,0
644,-0.121397506510628,-0.16039555971457228,-0.14004864826699429,-0.1473448842670021,-0.15063910638161856,-0.0997630071224439,0
645,-0.05675681700800956,-0.19796631302787793,-0.14251771654702425,-0.16931928022908121,-0.15182896290169112,-0.09114494729121639,0
646,-0.16022867856768325,-0.024518964013852847,-0.10623899621190844,-0.03338871681387973,-0.1260135879710289,-0.16081608349498777,0
647,0.01576283167030887,-0.06316574900143292,-0.03482292029324077,-0.052517605158243455,-0.07515557851665874,0.023562844915687386,0
648,0.027690908123118224,-0.02496915738682612,-0.00966177570726278,0.0012891232595959989,0.005134733915281908,0.06004461300918209,0
649,-0.03932119678894218,0.0482661483585496,0.05661052668786232,0.02065759955870591,-0.019080286162970358,-0.0115211634393492,0
650,0.12756494609162325,0.08297388614938997,0.07815847284065508,-0.002258263610577148,-0.052885136505804564,-0.0032234793194062666,0
651,-0.05834804283429114,0.0023559294074091477,0.03265404366635746,0.013930016523915406,-0.04490464227306351,0.02768772528909451,0
652,-0.00428952315894853,0.10715754564475607,0.06743373996250296,0.06896113486890049,-0.019602008019438996,-0.00036081691015641196,0
653,0.05472935688425535,0.07244394358984621,0.026997680200641094,0.07196273658311277,-0.042830599357871896,0.04924073899081962,0
654,-0.013613633057157931,-0.0433606676793401,-0.05172856038622084,-0.06333010640756019,0.025520110366945167,-0.013563399927338265,0
655,0.042973840402653306,0.010520072487991432,-0.07088604599656521,0.05357351460264545,-0.04851083177134458,0.02226201035297723,0
656,0.039906996539818086,-0.08700860646691978,-0.05296003565214421,-0.05197679093704405,0.03135736875379864,0.05321190843128076,0
657,-0.03506069267509716,-0.02431059746330115,-0.02144668048952559,0.06633806338863722,-0.007803001932010964,-0.015773055357418516,0
658,0.054642132555531964,-0.03302962996711633,-0.031467136634396375,-0.11812610617245194,0.03206428283549625,-0.0165125063801115,0
659,0.021119983182092992,-0.029407674602328827,0.0059107341387314065,0.03213487354254242,-0.02845879023073834,-0.0017422601219523354,0
660,0.013016985051966246,0.09184627346306959,-0.008637567535476788,-0.12403762885035623,-0.0404362635064997,-0.062352182348009544,0
661,0.045176360522158635,-0.00760309673059894,0.026233493879490172,0.04458287659426399,-0.005709134482088929,0.06933782458307741,0
662,-0.01616512284500093,-0.04331857319900512,-0.07198879064477272,0.007561148941270908,-0.04506799018235286,0.0004450352759513057,0
663,0.016179627164860624,-0.004020143508060154,0.0037389162855234644,0.01689413429150402,-0.03589106542386884,-0.0658288960377737,0
664,0.012055931592030266,-0.06281451736566014,-0.003678903420035917,-0.04609025669520971,-0.09591312509267012,0.05744476157001212,0
665,-0.02231444397380823,-0.07971016337499666,-0.11060852463019913,0.03645488656926275,0.010894228485509883,-0.008003006513480182,0
666,0.008104171762534832,-0.0262800228574875,0.03870163793628147,0.10763512967014825,0.04158740784245714,-0.07206020590013484,0
667,-0.11077582998899684,0.0016178141325275744,0.029763858316253812,0.040026427876752695,0.03593584444724733,-0.11671687289918402,0
668,0.06844297010038262,-0.006845669280278188,0.059160839120762185,0.04148839045173048,0.0641719855927736,0.033053391841490226,0
669,0.04078588781974105,0.08290595996011624,0.030617715839387542,-0.03557392174309935,-0.05352746698612405,-0.05783493004230802,0
670,0.025509166481069545,0.017205205768696972,0.04278551567601203,-0.09623806687869332,-0.03037290234164799,-0.01832485368759224,0
671,0.09801540082124624,0.030693223275375804,0.026217815645485594,0.009434512029812577,-0.013199326115717691,-0.06507527368505288,0
672,-0.08656907044279036,-0.029628947356441452,-0.010668248304720492,-0.0936093307516228,-0.014611911616181087,0.0638566617498039,0
673,-0.040801954292673186,0.031011662868952964,0.07005914293530943,0.032664372320402646,-0.057987972534150216,-0.003098278099286897,0
674,-0.03769438151795447,0.0552024143392692,0.0015718681013232713,0.011195600845066392,-0.1052524037176257,-0.043761330060467556,0
675,-0.002168368735670304,0.0560938178955576,0.033120130690957574,-0.04085868597338548,0.011608949046658488,0.044814555489074176,0
676,0.004953981848480636,-0.05030045030298838,-0.016075771093471008,0.0436315198458406,-0.06113165399843254,-0.06529342031091095,0
677,-0.06504337338425421,-0.014081176335858089,0.019307425122141376,-0.034438253756706394,0.03379445527464655,-0.08043052994202644,0
678,-0.1028135622489453,0.12253452673708189,0.006511176438806714,0.09437386967179195,-0.027057961320462467,0.0511459087705619,0
679,0.009332028962992915,-0.04198423516334521,0.04776347501749587,0.013195740314253652,-0.02089447687583011,0.026317995427496372,0
680,0.08959330168774447,-0.06684957968143103,-0.008745727558787436,0.04661387279346539,0.06379925352689002,0.013438013114139448,0
681,0.03602642528696426,-0.022501119951282095,0.07004411358236876,-0.07290696599371808,-0.05430603668671465,0.011084645141893622,0
682,0.05679605539350927,-0.05079197096679266,-0.037328376116826226,0.0474160149095063,-0.035162564986387604,0.048809628101839565,0
683,-0.0304108205620657,-0.038576465114556396,0.029310188901368616,-0.06968844512849494,0.07561811056614866,-0.039262677772528405,0
684,-0.03379520451647206,-0.06721063691207343,0.023509611739553897,-0.01475857517753208,-0.10217559264956577,0.09822802621801816,0
685,-0.042289000437127314,-0.03292935395157486,0.02095926339620844,-0.005189972985023323,0.025703725331491616,-0.001765001950718234,0
686,0.025058739313719908,0.09426733194824703,-0.05670137461232574,-0.054968791414372144,-0.0633999043793569,-0.07260203184335833,0
687,-0.005363812742407754,-0.003911443624588144,-0.05044821697982886,0.05554456142684387,-0.009442070106694051,0.02945735761445929,0
688,0.06963808423479585,-0.019727921949649015,-0.043457222814554566,0.035459892401620126,-0.048126274616338935,-0.0698906492925483,0
689,-0.06692241473519583,-0.025279840530402758,-0.012775087505088212,-0.03455730492064075,-0.04737684559043645,0.01980032092484744,0
690,-0.0534327577337752,0.052409827114241504,0.07679719749448179,0.03866153006577581,-0.02583070907647248,-0.034577711897325315,0
691,-0.009112810779349185,-0.11011004396884573,0.03899951848363086,0.04942924488174385,-0.06319631304612192,0.0049208170265806804,0
692,-0.019744566591518613,0.005015107987292594,0.037348953468403154,0.049308662246164967,0.014657072957640238,-0.020245304254711126,0
693,0.06618455707644334,0.012824530215425874,0.01043130466795526,-0.004714350201438957,-0.04668455928427649,-0.025228063322070393,0
694,-0.07305260949583975,0.005391293333786648,0.02594513780234115,0.08257450709253714,0.010825435701320848,-0.04883146985488985,0
695,-0.03376678622577825,0.08931219001900449,0.04335498355737111,0.015348382855598674,0.03692730627642391,0.09548282100353114,0
696,-0.058757633641824764,-0.001952011437485143,-0.011719128069982347,-0.01797542050382887,-0.009075969654285075,-0.02225637650963344,0
697,0.048952468292273316,-0.011539745671297504,0.056198220878355694,0.07343609714109807,0.06834501167212446,0.05504270800465651,0
698,0.006434984068100378,0.05199117696333331,0.036845776866086845,-0.04223080585783929,-0.024362833264390562,0.06991803366543824,0
699,0.027948440586462585,0.03808484833999653,0.028284449057868435,0.05920415565286764,-0.08125705687868179,0.014519163889103725,0
700,-0.01959751540062709,-0.030485085680122433,0.031492049321730185,0.1499906318483215,0.06780727427155407,0.08434464930191185,0
701,0.177735192818347,0.27233111693972556,0.11999788209656484,0.12684767806294636,0.17419855004192014,0.12928972850172543,0
702,0.40307279830300213,0.3550242882578857,0.34938263751562765,0.3195706009760419,0.34471226437458147,0.40694916806657777,0
703,0.64295287177875,0.7480529085906922,0.668553497358326,0.706598519379971,0.6929169003469743,0.661145854631208,0
704,1.1957518639532274,1.1585697925555944,1.1532870758036227,1.2808111226271495,1.18327170343066,1.214404206410404,0
705,1.9237502035975775,1.881264089674835,1.8978440272296926,1.9283358246927922,1.9194119255848636,1.8900746849674581,0
706,2.7898709037985827,2.859556962528007,2.7603213443690784,2.8552539140381628,2.872443979172769,2.73072571099837,0
707,3.79496649062394,3.8435718860720036,3.844783541795165,3.831607068295506,3.809624377218789,3.877393077267091,0
708,4.969747877817602,4.99726738837879,4.839810301176097,4.938072040570591,4.868036999930613,4.882512644177683,0
709,5.839820941561961,5.958011517739252,5.990353354805624,5.936450789186857,5.845249018618692,5.9488060868455745,0
710,6.627938240439357,6.648210740946323,6.586715095772652,6.7154386842224385,6.651620688343325,6.761916260583817,0
711,7.0059031815299,6.979875628071897,6.916727338357427,6.9709073521600144,6.95442028737688,6.917929252887413,0
712,6.646272613348852,6.73482474806425,6.744409995762268,6.729320396960162,6.6599450535351545,6.830058449612022,0
713,5.8139936704543045,5.8579055946064384,5.823216630136636,5.906870341648406,5.850566136141244,5.798630451514635,0
714,4.491904991437646,4.504086987868844,4.516957393536347,4.45196503184487,4.501258387980312,4.464086470850365,0
715,2.804753431836237,2.7939917472306925,2.79253431244427,2.832031634718947,2.7905859769243135,2.843465176166219,0
716,0.8554109796269965,0.9791504318812718,0.9382841445832854,0.9429085304632019,0.885180417404282,0.9193506309309066,0
717,-0.7906138273842102,-0.6756468362096564,-0.8773583443925768,-0.8121294128669779,-0.7634464310691496,-0.7009526904918136,0
718,-2.1760289350524458,-2.156535517682383,-2.1648837261028016,-2.22233418305595,-2.0911819156823563,-2.094870833864511,0
719,-2.8728358993492864,-2.7853546313173743,-2.9728036471781607,-2.9730993521232256,-2.934924348185381,-2.9204977521392927,0
720,-2.9433317544358495,-2.9719922765789004,-2.9616558434062297,-2.9259144113602544,-2.9850528176793163,-3.0273860586197783,0
721,-2.4868888316731073,-2.485309891158268,-2.4436090095847587,-2.5027978100771437,-2.5728535349992163,-2.5601607238280746,0
722,-1.583502400957522,-1.7008001176770149,-1.66059168915999,-1.645359714130902,-1.647921030287316,-1.6063368832496459,0
723,-0.5948622560487463,-0.6199196697387074,-0.6001568278141682,-0.6829504115563368,-0.5631988711823906,-0.5552185859771287,0
724,0.4688610003966295,0.5310859475374204,0.5157389180900308,0.4623313202241542,0.48589766426219855,0.5547897361275813,0
725,1.321408300141398,1.243775153353859,1.2391271830484234,1.212535366795775,1.1613028367463605,1.233730926300939,0
726,1.625169702452841,1.5680780362095683,1.5109750398249233,1.5652311142526572,1.5623958442968728,1.5543504583920997,0
727,1.426992606518436,1.4676628148027262,1.4654918354181936,1.4930685349583046,1.4728914753374411,1.5786834370243055,0
728,1.1426254289882074,1.1213379498531233,1.1505511764735359,1.13726110054416,1.0990001512304362,1.2459040425199004,0
729,0.6115425323840014,0.5803414365797712,0.5827816087380965,0.6549513600960235,0.5535509158441412,0.5479541102771917,0
730,0.0599206932369596,0.021163432650171076,0.03318113500831634,-0.008880023601699,0.06583558679306814,0.0025666183494583153,0
731,-0.5176943032902628,-0.426481485715012,-0.45276837170823475,-0.49004085985924867,-0.5352237457577937,-0.4739900452130864,0
732,-0.7993158418192753,-0.7918388676563454,-0.8325075325226009,-0.7918267834800902,-0.8090730204946305,-0.7841553559253708,0
733,-0.8621438637177237,-0.6973517946473624,-0.7771271803296517,-0.7806946414911671,-0.7469037558203491,-0.7856526170959272,0
734,-0.6753081649261616,-0.5608443254909159,-0.515782526108171,-0.5892009308792365,-0.4940211544728061,-0.5947602071260965,0
735,-0.2834177354116333,-0.2485074934263015,-0.3828723612080869,-0.2527109060994918,-0.3022038657120223,-0.3773621079557869,0
736,-0.03300679042684384,-0.02742939893662898,-0.15190477769755245,-0.10261920050220157,-0.06112258045310598,-0.06343660253928804,0
737,0.13023934739580917,0.12572233638976488,0.16353526224481604,0.2092747430340028,0.19473222388919276,0.18044685529565188,0
738,0.21706939786162116,0.3171758502404109,0.2888070994534837,0.31455063881427436,0.34935918895599655,0.3702818818257796,0
739,0.2918317474700378,0.3709583493946272,0.2716909534148327,0.2947134413169107,0.410249977529302,0.2663854769096964,0
740,0.3840015422480375,0.2753214045274254,0.2681274291519738,0.27059113661264883,0.3888553481917588,0.20291774479458197,0
741,0.07879930030469122,0.17370309241331575,0.108045754634091,0.14649711455396663,0.14745558092192051,0.14321603549959855,0
742,-0.02864279890731351,0.10889687906629322,-0.028972700339644972,0.021398748318282396,-0.01221267985085224,0.02065735209898738,0
743,-0.037915546705770534,-0.05509479907749046,-0.0944663468010015,-0.05363859327762405,-0.042072605095908405,-0.013428002170167826,0
744,-0.16542190057975698,-0.1266194575443912,-0.18831227953579277,-0.13124646938687623,-0.08469128606083501,-0.1534968735035405,0
745,-0.23648672469192578,-0.06826486270861792,-0.1099569771177932,-0.09492484065629372,-0.1525621717431886,-0.10423692361739793,0
746,-0.1441921441908003,-0.16727190890833624,-0.046400715512492856,0.014565290675879403,-0.058554141292625525,-0.12799074124815368,0
747,0.0347726579189241,-0.027210625939991094,-0.027905469378859543,-0.05113108289047052,-0.08736270496314581,-0.03363622112524349,0
748,0.04830931137720768,-0.0384604857540389,0.06262661914475988,-0.04886203402288295,0.011320968837566324,-0.009678737110405691,0
749,0.007077555926771683,0.009081358601485203,-0.03404192306099099,0.03341489112827624,-0.007427603479125782,-0.025774123607231313,0
750,0.07777501268594794,0.015146027431055004,0.06981804412423262,0.10817606704250801,0.039132166230477744,0.04781155379403072,0
751,0.027329890886602613,-0.034588771413886374,0.009695113294918914,-0.004427205092108359,-0.02812334171202295,0.058714440661877476,0
752,0.0645767899434705,0.07292213330101806,-0.07806752342724908,-0.010655289417886273,-0.060284250754059826,0.05878250256242391,0
753,0.03161853177923653,0.05315159110071429,-0.01962262754458412,0.01468462914815091,-0.016098341242628905,0.016986558717480213,0
754,-0.001990695396249136,-0.0058605764225049045,0.03568023095953948,-0.008239139133459136,-0.0048182531215263304,-0.12189808132416104,0
755,0.027620830405676675,0.02474242799199124,-0.0094370325400145,-0.016415605654520975,0.0922312358902041,-0.011537395298241198,0
756,-0.03475269456594369,-0.09309857499056629,0.03135080829117751,-0.01647586996519872,-0.035537615066477075,0.024835187593188528,0
757,-0.02744278474611087,0.046745745270317315,-0.007421690087091088,0.023935080323887307,-0.0149747502707901,0.007285195549874967,0
758,0.011386629391004465,0.028883115635841405,-0.050461703203760484,0.00031899097451860417,-0.06275384621854631,-0.019614309790417082,0
759,-0.005638959464374911,0.043565181277652965,0.011026450426209512,-0.03610193429661045,0.018145646936684277,0.036181960576020855,0
760,-0.009374838613671652,-0.009572236737699035,-0.053031538289347036,0.13730745716050716,-0.0422045195194783,-0.00026039629696753106,0
761,-0.005292316661147052,0.018128311199129502,0.0030274790529164148,0.0004322772245926871,-0.03247790300323163,0.020135197538209956,0
762,0.05770127689390125,0.017907900234375173,0.039747628601099136,-0.026432213943149332,-0.003991464241539051,-0.022752959463617006,0
763,-0.018550929936393915,0.02843819636542702,-0.08890306381035187,-0.05279925295704878,-0.12613217235513594,0.07324356381558227,0
764,-0.030292859118283052,0.00890310040628778,-0.032331821949135885,0.080543012346541,0.0698267806380659,-0.02945407363314809,0
765,-0.04446631615736091,-0.061180810201522905,-0.027613416326341008,-0.051401012185198255,-0.07561860892274777,0.03403520415420333,0
766,-0.03331599140064737,-0.04486519665905879,0.011736181200724005,0.04773036223347167,-0.0275617302009365,-0.0013768915070056678,0
767,0.09001580392740954,-0.006818319274434332,-0.020078933544140733,0.07019885808343926,0.01017027263822389,-0.005136808699415223,0
768,0.015949211393543626,-0.01317487396840068,0.050151938232274054,-0.06954634793946841,-0.06325214571531547,-0.002330777268229517,0
769,-0.04650358402390905,-0.042284857947010014,0.00020173612796499106,-0.0018471280817229671,0.02970176743801369,0.06890909085750699,0
770,-0.07212346739967479,-0.11116343083145129,0.052548603417159015,0.053201251811887396,0.04945802298891843,0.04828724878116365,0
771,-0.05466497024875835,-0.03545838920249794,0.01948178717243953,-0.029375831852058654,0.05927954076124926,0.017367874830841467,0
772,-0.03930637682564449,-0.025804296137050153,-0.04079108818391609,0.056548042976872846,-4.8228511998225703e-05,0.05618897989337678,0
773,-0.11586068791790546,-0.012817013578253706,-0.026513542296241338,-0.05737119824966655,-0.00900935077157793,0.021422400314449877,0
774,0.02522310224181808,0.02066219412940413,0.0741299089839792,-0.011071640955622363,0.0008875687135330395,-0.03834299707362593,0
775,-0.034234381863469956,-0.028216554899187042,0.01306434147635264,-0.08280534624877156,-0.029252616310875963,0.05110173371592822,0
776,0.0037328878609256023,0.03481336627099466,-0.030727621147917505,-0.08308344742855425,-0.024967453725673574,0.020104189948504974,0
777,0.053304379398880136,-0.019888510331853612,0.05285264630691609,-0.012069312305570923,-0.04358697245559903,0.010299441975428187,0
778,0.009313523212617286,0.0683586580067104,-0.037025470874124354,0.056563430373863695,0.006979390172575804,0.03539879834478902,0
779,0.01989782530500614,-0.01015783101024829,-0.0913072577442595,0.05737900687670169,-0.03530231017911628,-0.055843002943110946,0
780,0.00531420232136213,0.001943937726096429,-0.01904613508384595,-0.003910662736874712,-0.026667603890791272,-0.055556762327750066,0
781,-0.014513483595263625,-0.02871772754956398,0.041117313551708445,-0.06883301331258268,0.01472698318080241,0.06055892592247196,0
782,0.003947100893287485,0.008621567304868299,-0.0018314899860023804,0.015279769733428478,-0.03529869293098878,-0.041490321370714615,0
783,0.013066794192479764,-0.03217293018704235,0.0735195886412431,0.04146014101129761,0.024318020110319676,-0.04231678511373714,0
784,0.01390296806194372,0.007306764897957188,-0.0077607315912805435,0.04570480654446566,0.01341586735516905,-0.030747157678065472,0
785,0.03563463277025931,0.039138568642877014,-0.033269812004973205,0.02746075696754687,0.046225727599536574,-0.024676831376992163,0
786,0.05163584289567971,-0.026912965463565426,-0.0453778528680908,-0.027867935110379178,0.04263865213477363,-0.06811733304502764,0
787,-0.02050174466104299,-0.07605981222755223,0.003772558088693767,0.014846510499794973,0.00040475990520974953,-0.026482668742035795,0
788,0.013137538653986579,0.02165146106210323,-0.01626777293505437,0.004489764148671985,0.017709299788522228,0.057028560032776024,0
789,0.011160033190530473,-0.11501042453319697,-0.0663804636668112,-0.08241027899036409,-0.030490497286853872,-0.02287443996761229,0
790,-0.0006188988321481857,-0.012942219553565044,-0.07131604014271005,0.012868022174384267,0.007353098982065841,-0.0054786614428596545,0
791,0.0005863841676750367,0.008353775566288609,-0.005034016184654991,0.04520973574112267,0.05210801983127507,-0.06220199054072638,0
792,-0.006334277962680345,-0.025185673484158438,0.10528370431740143,-0.0673273229206039,-0.06438387926652064,-0.02102035875988661,0
793,-0.021403803788386327,0.039308509921103636,0.04940989654514544,0.04343331013625828,-0.014888336535560582,0.06328012124879662,0
794,-0.04605284423400245,-0.05891941386959711,0.013818433207713829,-0.05891688088146169,0.08990607685845504,-0.045328822268701045,0
795,-0.022000047883952423,-0.019851084560961033,-0.015933764092228103,0.027068446019202864,-0.04775408645742569,-0.0871981371118024,0
796,-0.07850773340671532,-0.053075756494625585,0.011008227064529178,0.0161512936218337,0.00965601780280312,-0.026010225733033767,0
797,0.11241716073789954,-0.00430963765871302,0.07330825393404844,0.03821888902217349,-0.10055454665284183,-0.033565521847988285,0
798,-0.058523930574229235,-0.05323789082615653,-0.015404600571813441,0.021594865819497842,-0.05484648918161113,0.036985984092081196,0
799,0.039589308246543164,0.043372022314690596,0.00041453293153958896,0.053813340412767766,-0.020293539887582784,-0.07607601567789186,0
800,0.02264970568512365,-0.0845201519016334,-0.0005370952707980103,0.04846763433360383,-0.03368898114595572,0.032428887540727015,0
801,0.037800054113974094,0.12969876806889397,0.15524675288534562,0.11181128607492923,0.06209592911757791,0.11674809045966729,0
802,0.25453498381784373,0.34679049037359727,0.31816343700733907,0.3434070960275778,0.352107994707734,0.30955894041340165,0
803,0.6496675501426067,0.6437693148431807,0.6794983685989611,0.5211502464222695,0.6249158806769639,0.537478298752194,0
804,1.0261376231930672,1.1050391143448763,0.9688237152424523,1.1086678066910574,1.0173798918937618,1.0619395002967118,0
805,1.8224400586341394,1.6674974605875128,1.6612865601025788,1.6892793381458158,1.6861109297806536,1.7540488242891463,0
806,2.5720906163689032,2.5555805605673094,2.584768700399162,2.5350702703069117,2.587117809681788,2.5415663952094234,0
807,3.5477425566990974,3.740173293548343,3.4948866813212884,3.6016903982367445,3.639592029574503,3.66092313489025,0
808,4.765874490859646,4.7180726526357,4.642951370242902,4.680674051682609,4.661605290015713,4.689457548267644,0
809,5.6543675476046165,5.752589493924851,5.726279769520495,5.700237195115224,5.723360176042459,5.721179345729244,0
810,6.5952949617206444,6.515004641057632,6.473317175081997,6.536017366655598,6.488083197986179,6.462751617521056,0
811,6.9591198412135205,7.015913775115808,7.021372127516333,6.863746617433841,6.910206047276389,6.939797261673973,0
812,6.932594632162287,6.783236708185114,6.962981426819393,6.886194570039987,6.7986653052288055,6.863456517769251,0
813,6.190660610210453,6.188440247368973,6.130372322286614,6.067052146174557,6.158333701895412,6.069861440983792,0
814,4.907926247006375,4.876927377637456,4.895624558921122,4.765129123896379,4.8934189681920985,4.878409679577554,0
815,3.26349090824293,3.2198185472402976,3.3491481132721574,3.173537280346726,3.2845043810594317,3.265058944697971,0
816,1.402798923461851,1.386719591275283,1.4958095562758473,1.3327684303472414,1.3873272387293858,1.3253467382645752,0
817,-0.4254537483479791,-0.37764704996518744,-0.4554116812398169,-0.3499143255055808,-0.3456405376084339,-0.3722264004186312,0
818,-1.9652922061631704,-1.897399258829567,-1.9261726700775177,-1.8785426681078081,-1.8327777954347273,-1.8649445242920393,0
819,-2.808013365227137,-2.786876918497622,-2.7433198826907588,-2.747706906331925,-2.8252771070665466,-2.815861310302792,0
820,-3.0406016280084915,-2.9702966675905738,-3.060246582513431,-3.0276263168145667,-3.018013325250899,-3.116814172114603,0
821,-2.5872274753073063,-2.639344779435378,-2.6061750484613824,-2.613764928269304,-2.673112626832103,-2.6210930302134794,0
822,-1.886381748018653,-1.9158811793872788,-1.8017010265471396,-1.887861883100286,-1.943671266840578,-1.8626576015461282,0
823,-0.8213674933286521,-0.720930836640519,-0.8380607220975197,-0.8387922262672136,-0.7849440939882264,-0.870023086655812,0
824,0.2640126940873486,0.23450995594483223,0.22345524937864925,0.1555666262596872,0.2717372238843903,0.17636921790298452,0
825,1.1078674890350817,1.1821170903121074,1.1395756556399754,1.1017741266360097,1.1373115879404376,1.0025678655344294,0
826,1.5576816869426853,1.553422602129591,1.6029994857688654,1.5600660893565403,1.557891272417862,1.5454824423614024,0
827,1.6937912219895892,1.535007353484782,1.439209511821627,1.5440692692392552,1.5208824756397137,1.541752666346491,0
828,1.2300815225405834,1.239185334290024,1.1723974474483354,1.2315573870046188,1.2559187989087082,1.196469081670551,0
829,0.689966489689985,0.6948929670715318,0.671467089716073,0.7421055835410386,0.752199224160825,0.7017485617757176,0
830,0.12031400442460372,0.08978738819190663,0.12046768102704926,0.16554707981118122,0.14576533726015137,0.1048445679883051,0
831,-0.40935632695532537,-0.31815026906703364,-0.43486313428938106,-0.41525860966389355,-0.3131531946729996,-0.3520248346190624,0
832,-0.7339303464344534,-0.6912054018826752,-0.7032919255627545,-0.7721514586729493,-0.7626527424132411,-0.7509775833394547,0
833,-0.6858146202810971,-0.7376486104570128,-0.8394797876224226,-0.7944896121745002,-0.8328142869616232,-0.8444544220791591,0
834,-0.6959689927839976,-0.7256112753965416,-0.6370291128312114,-0.5977725515716908,-0.700193111719816,-0.6817411435958265,0
835,-0.37387109614218433,-0.367705242740925,-0.38362807893577017,-0.29446762802710524,-0.4436665816243065,-0.3952440590341625,0
836,-0.1358826531262844,-0.02632185184126623,-0.0959042095197898,-0.13306156214588918,-0.06226857495154807,-0.08032232872468287,0
837,0.03125478773757212,0.09696643714742079,0.1909393787373613,0.1714943471658211,0.1869367308830919,0.1517240544663132,0
838,0.47067522087916236,0.34497053417392676,0.3319235613861403,0.20169701560276243,0.3161025821582904,0.3129118278677347,0
839,0.39424810678852223,0.3658152626922898,0.31714359750184473,0.37840347601053914,0.31942508780781376,0.33972469238193265,0
840,0.26687579378424375,0.39154296712593845,0.3879147596496837,0.2014717586339741,0.2659540243912693,0.27838046599926836,0
841,0.17640916117259892,0.15810025771657843,0.16260274998419508,0.18082734438306208,0.10328409139266287,0.138428762780487,0
842,0.05054919125297208,0.04164349857191029,0.02574189496811942,-0.013677896650273066,0.04639797585101865,0.04299618538670358,0
843,-0.03171268901833605,-0.07976232566829508,0.013033395788008002,-0.055443903880588306,-0.06752062777160922,-0.0901803525121356,0
844,-0.1222947465348922,-0.13434313621339472,-0.13198573611879474,-0.1716954550014202,-0.08695514290340367,-0.06860075233416116,0
845,-0.14185310653596817,-0.10498969718716036,-0.20831646883499294,-0.15146686989880076,-0.10557015312240521,-0.1769550983612344,0
846,-0.09400367348004611,-0.048708016209519804,-0.04123678144358327,-0.02742440618352293,-0.06831263933068754,-0.14046984674666263,0
847,0.009694919407148311,-0.06395692160590685,-0.04384312435449632,-0.14567296837525567,-0.01608563994133068,-0.08782283808453843,0
848,-0.03995873607569099,-0.02960079032184676,0.05513341570226881,-0.021882608201942357,-0.034596244644147,0.03122761933201436,0
849,0.04396989693421975,0.056900546665931584,0.05449666244008965,-0.013555923680348612,0.08604371835637796,-0.088727019580223,0
850,-0.015878646374623884,0.017829779065473214,-0.013388093971522498,0.0015865115549654994,0.03989925727416559,-0.06995152329551779,0
851,0.043195979718395235,-0.004291174996954455,0.03330184875581965,0.08116315620139555,0.0470462080701045,0.0021798815043798207,0
852,-0.05877544245779284,-0.08353820806718665,0.0105436962433133,0.019284398961874043,0.03274552344472184,0.08636772592933954,0
853,-0.0036097666929835633,0.060513510185832696,0.014325762338469156,-0.06248754189383409,0.002362581208574914,0.038264708767153745,0
854,0.024824472873439692,-0.0027590244770595526,0.02726143601176569,0.051010859261091106,0.05557125329905894,0.03828688282739877,0
855,-0.06629346972014627,0.12641333369736235,0.017987316340814092,0.13257752141407628,-0.017482972268869305,0.032767185300434626,0
856,0.04073690536629186,-0.021323195964435937,0.0168570031908122,-0.014440392193920945,-0.03801792161943087,0.0659454379916749,0
857,0.031144131804213035,-0.04611920697874008,0.032675155208413194,-0.019434859761322035,-0.059132669823720785,0.017716829368383376,0
858,-0.05472960736874404,-0.00206458630533723,0.027094183610075876,-0.05592912627070025,-0.00036716878726063143,-0.006814788204849725,0
859,-0.06044215511107563,0.0443599860350619,0.07544609753797396,-0.06286339181017114,-0.03313600583666119,0.13439512243344784,0
860,-0.055947885495334505,0.022731965555381616,0.04613296164782897,-0.0010745691474733548,-0.060181695189558085,0.00034875117536847344,0
861,0.021606544539501324,0.023056385247304023,-0.0850596241763689,0.018078728333949703,0.08928374632865067,0.02777807847460465,0
862,-0.07043479540354167,0.036466300487259254,0.049402809551527094,-0.0023600039318680604,-0.035043489123800696,0.027276971098116255,0
863,-0.038045791985993456,0.005254693152295466,0.03750083685858986,-0.027735328230150152,-0.007053879250593635,0.07067814267891985,0
864,0.027392719618721972,-0.021780311177040334,-0.04118223690070937,-0.006897389397801429,0.002408263730835126,0.0190813520438483,0
865,0.024362853091457668,-0.022728024228853234,0.07133395998427249,-0.0015431294306316402,0.06789737366368674,0.006269731925043818,0
866,-0.04689825372885263,0.09289671969881905,-0.019065649299369616,0.03408779347124831,-0.0068833164961231855,-0.016575109052729995,0
867,0.11707043892549251,0.08579612373678255,-0.018478309587966264,0.022788987377862762,-0.013912213652827729,0.05888426513879217,0
868,-0.056764009057513394,0.11310433447438889,-0.005353693145349122,-0.0030881324952019844,-0.0527811246788341,-0.0403504683995491,0
869,0.02911056943635399,0.006685052207080382,-0.04304780490306848,0.008428102913205013,-0.036469764104927534,0.020049281303804657,0
870,0.03797319428251649,0.04436969727660325,0.03605867449005705,-0.017721952423558743,-0.08217913879625727,-0.07293669740767257,0
871,-0.08102488957030281,0.01111891639941992,-0.07553277995360418,0.04656144699096774,0.006811959240352072,-0.023031274576818757,0
872,-0.09227431088111901,-0.035630338473962866,-0.031048953913417523,0.09115545330116168,0.006482075153421409,-0.021545575839406417,0
873,-0.013743442681054426,0.06857333375186735,0.06848466388710714,0.018914873183069725,0.13235713442908958,-0.08486343691504622,0
874,0.06978783192137854,-0.016083382838376778,-0.03321216161003311,-0.0403100392959042,-0.017025824580253254,0.0190723655876126,0
875,-0.05135336543714483,-0.06386215390494876,-0.025808441022011658,0.030334402007395116,0.06225786985514138,-0.049002970129553444,0
876,0.007377653976634118,0.09157978922110938,-0.011712457780545648,-0.04817963693866793,-0.010470745744927151,0.00802780238466684,0
877,-0.01059105086047943,-0.007591966944517349,-0.004351737526908156,-0.0347206423876664,0.09779461758440813,-0.0675171100987723,0
878,-0.06848371526623641,0.0024402594893276446,-0.027010850251823086,-0.07151797009269155,0.054808967060458985,0.04727041361984018,0
879,0.007045386307681897,0.008411443156361238,-0.0034929990554855082,-0.034465797720617274,0.06821281109028278,0.004904151619541555,0
880,0.021094636636761605,-0.006682896628659803,-0.014190438223841131,-0.057183356530306324,0.08877213422304749,-0.07935305700435573,0
881,0.09838912867514506,-0.016439018032021593,0.038237264529817835,-0.0709433664266313,-0.018476148302663982,-0.016815077332484323,0
882,0.031932314512569664,-0.02880321040482837,0.08688999234186989,-0.07292166772603581,0.06506775439582703,0.012715343529962288,0
883,0.013043216305599136,0.07799343467409689,-0.05214789066811283,0.05058201197796324,-0.01849403841514683,0.04653389104158478,0
884,-0.02698792690807583,-0.01660663274578998,-0.00886034559884631,0.038596506240840156,0.039945951707832376,-0.05077448299365663,0
885,0.05609804799793332,-0.03646734712277709,0.07505473935118818,-0.03226683896230496,0.0025771635537466656,-0.08446656151106383,0
886,-0.015080177705464725,0.13027474327661967,0.018637280683050546,0.022029812319792858,0.06234381816798758,0.00832284034773108,0
887,-0.0009718912926543353,0.004253334635695406,-0.0206880161374178,0.09668774944257387,-0.0019168269462000768,0.014346460465692408,0
888,-0.026609920432965627,-0.065915166955534,-0.009985619908831515,-0.008726253491764648,-0.0008092544195821287,-0.021384131746367663,0
889,0.029655060948860657,-0.013175884889286914,0.018588490634665233,-0.061412262577426366,-0.035725479395682734,0.06512888458162193,0
890,0.03132538822229144,-0.03885952075994422,0.015920470375770348,-0.01721016310195679,0.026695815240037415,0.09038662511548667,0
891,-0.014246012539958613,-0.007114885859531432,-0.03325023669731576,0.008729217656599123,0.00806856338752986,0.03899548176345269,0
892,0.03334993272081956,0.04121795513026207,-0.058879593820076875,-0.014935849361766982,0.037826856756649166,0.0040586892453957826,0
893,-0.0363685021953677,-0.03549877203833011,-0.026427753032338297,0.08271641686742344,0.08945039884762739,0.0096163262587586,0
894,-0.031162619720396387,-0.002178044325354448,0.00043479890108473853,-0.03469253822187207,-0.0011660193318355396,-0.008758034175592339,0
895,-0.04954023826401097,0.03559943953478412,0.005961678639586384,0.04636001785892326,-0.10169621600342234,-0.043263107288093273,0
896,-0.026092127969366923,0.013726851624034125,0.05930430043210761,-0.019183564763338826,-0.030566141767697026,-0.04601086818632102,0
897,0.022025602992045763,-0.08018963835430451,0.05073085869490149,-0.07070126136877175,0.012628974051585378,-0.05386849850499753,0
898,0.02400754670401643,0.03198661505388479,-0.023281026107249258,0.062322507971458274,0.03397373041904394,0.028214650299414994,0
899,0.030808365168378694,-0.08083921675860477,0.040871317420515856,0.006876364286521958,0.04439661134216403,0.020966529086000933,0
900,0.03383469108106356,-0.0346754876342497,0.0036540361473240968,-0.03784945110942391,0.0314864874234862,0.08976364055200929,0
901,0.09016534249851343,0.07697143289174635,0.07222631517479473,0.08436601563578268,0.2179641169484554,0.08357472222502674,0
902,0.32321824439441793,0.2616807768289608,0.21159547868384493,0.1474937174666201,0.29184844662466314,0.25611662764198084,0
903,0.398618174528826,0.5144881813372046,0.4493228001773879,0.5239537491349414,0.525873224790947,0.4204269612388359,0
904,0.8768624600450727,0.8910712149524653,0.8401701317969936,0.8914541129326016,0.9410903401555121,0.8688617507188265,0
905,1.5524573821702914,1.514761552849365,1.5592876757527674,1.4397673624728908,1.467086488551498,1.4897312205714972,0
906,2.332011028451196,2.4093969397404753,2.283452062934427,2.3779976260528355,2.459622453405747,2.2932144178217637,0
907,3.425748401893992,3.3287249949885727,3.350686483956113,3.347370240692541,3.372917218004012,3.3663414029378833,0
908,4.481485472673811,4.493413016178026,4.376166247470136,4.460631254317394,4.496675883858828,4.408080753154845,0
909,5.493666172759078,5.4775816589683135,5.457053897870605,5.530013519235278,5.470155948142739,5.502956427858721,0
910,6.38375935359278,6.382349798109047,6.418873699827235,6.302867382000474,6.344731696042509,6.27942226156801,0
911,6.882614485466095,6.765537947151795,6.849899470058757,6.864248323814084,6.914333386549832,6.850222683444893,0
912,6.769927829267329,6.940471035691895,6.904833658237311,6.927315761109531,6.902733352469112,6.958125213288727,0
913,6.420120742549628,6.352591437355853,6.343496338766778,6.328823909528426,6.381624145541904,6.320375354764782,0
914,5.178170177091511,5.22971101592226,5.18215753660124,5.198439521204327,5.194944923052964,5.239225912884303,0
915,3.5305869338436073,3.6578417777764267,3.5872130116708205,3.7345594706596135,3.707064677626494,3.6897526710581756,0
916,1.791348481589322,1.9117674434340195,1.9047103695915317,1.9046409997340632,1.8139814551514402,1.864141191781689,0
917,-0.04515343984777588,-0.042269537480579294,0.10214905206938359,0.0794769949199929,-0.09782642928267786,0.0208283196178818,0
918,-1.482908544580903,-1.5420076007346848,-1.5232580439867935,-1.562292169047205,-1.6567580338566001,-1.5979908146383008,0
919,-2.615287045865767,-2.7389819181552117,-2.665078086355423,-2.6038084622399094,-2.7345791138828877,-2.5716034651383923,0
920,-2.9675427556974205,-2.99967897232968,-3.0096024900794793,-3.028736937142355,-2.9849730691458336,-2.957804219608111,0
921,-2.7804760020605435,-2.8121166986931594,-2.784044611420002,-2.8157405056314206,-2.7859384262899134,-2.8066155995095836,0
922,-2.069828715855633,-2.14012906230913,-2.1264586999329693,-2.09741516308411,-2.0374334137986363,-2.15095826251016,0
923,-1.078811822905774,-1.0800089919362212,-1.1541976085675802,-1.1134640843476462,-1.0783664492709646,-1.121702461538273,0
924,0.060154155624591046,-0.002596565592632189,-0.16381782268395167,0.06430564742733494,0.10540195654911186,0.01595270752182564,0
925,0.9601521536109535,0.9321470888657617,0.9168969039719315,0.9703538174454489,0.8708968212561772,0.8151938764415911,0
926,1.4957044677637652,1.4982256539135759,1.4584235708842108,1.524228590412089,1.4838709621285553,1.4971692889154122,0
927,1.6342819204933823,1.5921879804622274,1.5343558504980614,1.5926874008346483,1.627595723300327,1.6151962251504302,0
928,1.3359613196659679,1.390317972887011,1.3431325949410031,1.3061613921101047,1.3071161893841723,1.2959563654976252,0
929,0.8004693064506776,0.7790797788758793,0.8812157723357789,0.9449388325460535,0.8648853178927808,0.8959869679627874,0
930,0.3222161599734429,0.24045481948952072,0.21576635723987003,0.3227917265634592,0.2668097577366494,0.2562492650065096,0
931,-0.1884577898253032,-0.3156246070586216,-0.3489027340483763,-0.3355454085471252,-0.3409512113122226,-0.3455315117298984,0
932,-0.6381322927048761,-0.6319122818917795,-0.6308195635570829,-0.6914706709774657,-0.7179817317288053,-0.6429673625845237,0
933,-0.6638439592694003,-0.8202530331530287,-0.8133936989170389,-0.7400823183964294,-0.7637134442836612,-0.8217392682851321,0
934,-0.6901387414903848,-0.7687496674798886,-0.6907476065424807,-0.6907144413862506,-0.6732715581133789,-0.7045514680019861,0
935,-0.45825830858284905,-0.49634676693079444,-0.4446866318230897,-0.5011728333741018,-0.49179253392678773,-0.3302495966740938,0
936,-0.13287514641664244,-0.12729042856774442,-0.1746348243983539,-0.16263670775831013,-0.12775908989922882,-0.22975916271329244,0
937,-0.019016100468285335,0.047857713323011176,0.02710784869128094,0.04086473758993237,0.11894788943670137,0.025506659252346145,0
938,0.25568836785282417,0.22193870430640134,0.2128203472215297,0.27054162089539535,0.32212751814954566,0.20629642367839254,0
939,0.2978138320496302,0.45229234440407373,0.33950772153491066,0.25197961628742915,0.286185922562585,0.4114940060454503,0
940,0.19028106370050762,0.40424185072313024,0.2636139984745937,0.3145352549280008,0.2599225339615997,0.2878578369961691,0
941,0.11603703039516249,0.15884843983990032,0.1157680776333828,0.1359228109696964,0.1313513281724858,0.1465890745013434,0
942,0.11595967311139188,0.04714953933699905,0.10147094550123993,0.04986957321979088,0.03280470089325677,0.11833591849062317,0
943,-0.0742252680865119,-0.036506955359999094,-0.0032661722096094595,-0.040878610663443234,-0.003773707213813343,-0.07052646945827218,0
