timestamp,value-0,value-1,value-2,value-3,value-4,value-5,is_anomaly
0,0.2931153643353716,0.3616547751303593,0.2718394461927907,0.28503778412274716,0.30600150149814176,0.18394970138862837,0
1,0.48304808444466313,0.38139532816621047,0.5320732987419255,0.43948736677305883,0.5197998514232117,0.33703607599673685,0
2,0.8986576250016911,0.9542240012092656,0.8718012692749959,0.9206109012669114,0.8435211084298132,0.9242273850630768,0
3,1.6348146714975833,1.6569191148850269,1.618117826792531,1.6292811362432136,1.6356068033090432,1.5708677341172856,0
4,2.40242098219406,2.5263169955797418,2.5721440849721033,2.5255308529204235,2.5405699384616467,2.532324326685798,0
5,3.510273837219172,3.4927686449671955,3.475642189822371,3.4372242981118664,3.5167826223540555,3.4431219383427445,0
6,4.456184550988999,4.626757601230697,4.649936287092508,4.662269875341723,4.547395014428423,4.498204349527326,0
7,5.579657293240495,5.685418617039962,5.612686718758562,5.527761415704182,5.587531620586286,5.580682145464588,0
8,6.342762666610804,6.4343074721100395,6.406082949675458,6.378457143961898,6.408518264263628,6.441270222137754,0
9,6.974790748134437,6.881475245478116,6.90722447558833,6.904180881449008,6.881131956916258,6.915129701012845,0
10,6.959085161200722,6.904765542248989,6.880413477738242,6.945290368803632,6.956080176232014,6.826219216622419,0
11,6.326017175474614,6.182777093670755,6.2582302761939355,6.306442579817992,6.258199484811325,6.308280491706755,0
12,5.035094583099906,4.998837138228065,5.0743597425588955,4.9906779918294495,5.055236334327291,5.088960110234152,0
13,3.520139588581374,3.5096576242435393,3.417095742963874,3.429750991553447,3.457553046588577,3.4455179061867693,0
14,1.6998639330069787,1.6502789814679104,1.5803901208048003,1.636391426147006,1.6165862113872915,1.6345575336672193,0
15,-0.17142595400428653,-0.16848632040170763,-0.2253811792814968,-0.17821973185401593,-0.22145711590107195,-0.10706993956071484,0
16,-1.7422988093913059,-1.7984349103555692,-1.78411460381235,-1.6653096197289097,-1.6767656579248966,-1.7987907829467988,0
17,-2.6381470771985636,-2.7903428804100927,-2.666821360052446,-2.753373110046707,-2.732125244060005,-2.717658970840195,0
18,-3.0571186306690827,-3.0734913239353445,-3.0263592260055563,-2.93054797978912,-3.0678618772971626,-3.0382931474982735,0
19,-2.729415920556821,-2.758140650221676,-2.700665400636866,-2.795748187637778,-2.7028227023337204,-2.7347685405652493,0
20,-2.028270509438127,-2.054861740398024,-2.03130169588971,-2.010508104061683,-1.9905705548997357,-1.932258064082837,0
21,-1.0530904094126068,-1.0954180956781656,-0.9217303605706719,-0.9905136968197511,-1.0189225362400327,-0.9713321151995149,0
22,0.10259824400916218,0.09840900652505574,0.0903494692306386,0.11231239346648521,0.08803715541222976,0.056275893517307315,0
23,1.0983537566299928,1.0099115153722618,1.1313194502455297,1.0000859538019842,1.049086823739361,1.031843816571905,0
24,1.5234477790065204,1.505426049417427,1.5121986094964786,1.5001466461024915,1.5619138518582432,1.544755915274005,0
25,1.5564003370108355,1.54779474871551,1.5104274688429835,1.5470987745924472,1.5343986858771852,1.5106562371040253,0
26,1.3938664103709766,1.2234775185439246,1.2014471027332687,1.2835075022301086,1.221113509093508,1.248986764650096,0
27,0.7954664502401144,0.8763099743829397,0.8677065532732847,0.7256007738894832,0.8041311824738313,0.7211677899647836,0
28,0.13038116958694512,0.14609079636176808,0.2525505114597163,0.19433022227920724,0.1915172513643559,0.17150954606730054,0
29,-0.2965803569363268,-0.35278511550151814,-0.4313627585866154,-0.37422138762482715,-0.3212530433954046,-0.2556082449520231,0
30,-0.7091438454240616,-0.7242702699945914,-0.7988250774221319,-0.7376093173751267,-0.6881980814857113,-0.6089054288656427,0
31,-0.7136551894226124,-0.7141556544607186,-0.8324715285080382,-0.811685894484844,-0.7181855744995712,-0.8299306676338769,0
32,-0.6179093517009016,-0.6717799011150267,-0.7090023473800493,-0.7604505665995744,-0.6125333020687604,-0.7310188374182232,0
33,-0.4766455407159862,-0.4093567800472858,-0.3783227983251287,-0.3977609212048525,-0.46866863972610845,-0.5068056423755078,0
34,-0.16319303019924633,-0.24859414287071563,-0.1194427014217316,-0.09985695325190877,-0.13291135642590596,-0.12824595870077454,0
35,0.19489682356268703,0.1012714535657105,0.10065948183397769,0.07970603262917522,0.12244733413559634,0.17506149715510427,0
36,0.22718032945272507,0.313195340378933,0.17224009478702323,0.26866559946534735,0.26151721739878797,0.2625148361356851,0
37,0.3827373691497423,0.2856550599328829,0.39629534940882444,0.4080106118589996,0.4341522535736271,0.3193310965895165,0
38,0.2539277094179948,0.2689912537943857,0.2954720047060349,0.3069282591329576,0.29315436255679905,0.39285269667752554,0
39,0.24509239393681484,0.19275298181548545,0.1095245291068799,0.15816688020851266,0.08849611677409147,0.05775223562816538,0
40,0.059319888992119395,0.131205767046056,-0.07553504269742248,0.07192550826745259,0.07541475754337716,0.005702941243884256,0
41,-0.09540050248056103,-0.01839770577919176,-0.02899491974397723,0.029048652451197275,0.037362471582505684,-0.10708135557308018,0
42,-0.13021302333572526,-0.13867019727028393,-0.0825777425130141,-0.09691475143812912,-0.15558901408167675,-0.13639468763774398,0
43,-0.07032359071799907,-0.13376523501419166,-0.2500460947651843,-0.08439252876015962,-0.07774727475024715,-0.06473701174885024,0
44,-0.15838056918295318,-0.03824581613420261,-0.057580195411946256,-0.10812070228008014,-0.09899029426740502,-0.1421317402397654,0
45,0.025097962236273835,-0.16238829135411703,-0.057020731202540836,-0.07389148919254382,-0.08072549225595195,-0.11973784388256323,0
46,-0.011481230625037885,0.006934247903047825,-0.10422632706427482,-0.056888081815676034,0.013501978607151858,-0.01778892547268421,0
47,-0.030371423869944153,-0.08869479761875539,-0.0025687490900085097,0.004409606205457455,0.04180597746696897,-0.05429841485965446,0
48,0.028401704863316293,0.05586561876520892,0.07929571252627957,0.07740011220368975,0.028945818028412743,0.12982522757879492,0
49,0.06393522460168051,0.0225578280156117,0.07137725248778552,0.050826718492674124,-0.015942444358000383,0.04459030394298337,0
50,-0.06044616790346445,0.026893585643834695,0.008925973488679264,0.0603642538307399,0.07702178726573602,0.08543016780744933,0
51,0.03137886760949883,0.018261161471811987,-0.0016968929352275171,0.04354720744723902,0.023842525584907813,0.08440254661338921,0
52,0.005297992349316384,0.05761773064284027,0.03411119710434084,0.03786278476688345,0.003743537994508968,0.03478326974267029,0
53,-0.0340578769886999,-0.047512440822904733,0.0803984432208112,-0.02010355643349103,-0.015035293420523375,0.03291223571465123,0
54,-0.03290416499052595,-0.004346851410661812,-0.04054619886849519,0.057495023126391896,-0.05205918553001399,0.01931831671940997,0
55,-0.016373217201010176,0.007424410317755959,0.017238694102556525,-0.03558028228829101,-0.04977367618774543,0.09757302004006395,0
56,0.03711384275790154,0.015771303581017034,-0.026197419626846942,0.005525766870274645,-0.04738343535665703,-0.012572440679688981,0
57,0.01672201021315314,0.01804783526525928,0.031024782761213753,0.04326725287415904,0.07124589083924396,0.04444355173002847,0
58,-0.033403948330765224,-0.05761273951592656,-0.062361698944637514,0.04983401491749483,0.0731553428459851,0.06494243034315537,0
59,0.0039873336676511115,0.11146805610182024,0.02015908521489506,0.05299347065750666,-0.06575699727751244,0.048280270596858896,0
60,-0.009546574641700573,-0.09820377488055576,-0.026338273376814485,0.002770498896443658,-0.025837364172469738,0.10534802147454883,0
61,-0.022851959259877336,0.09698461640432082,-0.014725792974073853,0.03745903807951133,-0.005871824182941187,0.006130684372454255,0
62,-0.01276389839295855,0.014470447235716529,-0.07506835792498727,0.04616584932513267,-0.10692639168665302,0.1298480754164495,0
63,0.08215354076971784,0.02048787257977856,-0.006729274880598156,0.036484524516761055,-0.007673469270039289,-0.026603034292294093,0
64,-0.0028969341556227966,0.04896606161849161,-0.017685177761341726,0.03467291528612236,0.04932278522193249,-0.02765528620055296,0
65,0.029742275938134808,-0.020826832202022943,0.00545710255241142,-0.01716045110747571,0.11950590246252886,-0.0159045700445362,0
66,0.05813447997507547,-0.006746813463647684,0.11758369330955208,0.05766699677260016,-0.019595644460429995,0.0314369710503438,0
67,-0.01264882954570964,0.04856618593558661,0.00569386242376283,0.024993023942605972,-0.03195432022262593,-0.006990457399063809,0
68,0.08729903821699686,0.005604490113434402,0.09680927598902316,0.029931444612667484,0.038154041346893604,0.06411236505798129,0
69,0.014450233738971212,-0.11471474717520287,0.02789512212444359,0.06225967292276864,-0.005377515866622143,0.004613092363724608,0
70,0.02382784543259587,0.059234167596518165,-0.09215372241282101,0.016110878285166507,-0.009945586334972254,-0.03466406807350117,0
71,0.041191890667619,-0.04180867357641942,-0.02375868629123913,-0.04245310824768602,0.02340872487688289,-0.14646973546242106,0
72,0.059075735125057066,0.009310221017465002,-0.030492062554632122,-0.06548383573937687,-0.04510420686012363,0.016844872321179424,0
73,0.02807489953357917,0.06931213089008763,0.07541418745425715,0.06967483772455932,-0.058136471564595456,-0.024689675986572877,0
74,-0.022764366764713516,0.029828338551209577,-0.010422586130576929,-0.0946838646142505,-0.02042275272242026,-0.01755379596328676,0
75,0.04554182652190042,0.034467726088054804,-0.0024360522921229345,-0.030165036614475962,-0.05071721204275646,-0.05118336000600764,0
76,-0.04035565951519631,-0.009530838773595812,-0.049488583942342415,-0.009622452126501159,0.03544488326567932,0.07659083552217702,0
77,0.059493723014864275,-0.08576062991526223,-0.06839164228008794,-0.06179433442603833,0.08574631429336585,-0.04540234272930427,0
78,-0.009886443800940408,-0.022908170113115193,0.08608722640882552,0.06377821133564293,0.004183989795423898,-0.03334247684125996,0
79,0.06477732522615517,-0.0909876236242804,0.013865176708534889,0.003026206903583367,-0.0038761103741130946,-0.07770274798953287,0
80,-0.02454297186442334,0.03718203994293515,-0.030203685911761664,-0.004875003046594106,0.034498447483188026,-0.08032690497702802,0
81,-0.013858899795921129,0.04473605235337966,0.010546992799658999,-0.04665438661741645,-0.020788531821188772,-0.026646254694587906,0
82,-0.02884135981291673,0.0027291313092079853,-0.05227084826666874,-0.1480242329800711,0.037820744064819854,-0.010379282805384854,0
83,0.02910420716169581,-0.0320747408929971,0.006649423611993808,0.03686872041741617,-0.033823466963531876,-0.019989610089321732,0
84,0.012630273195815233,0.03736895301373736,0.13288997806025107,-0.061804259374020995,-0.017905503978356524,0.044012072557631794,0
85,-0.018540636163983697,-0.005818367605531508,-0.0038380183526037477,0.08067532237729179,-0.0035134422870590405,-0.004506535740535152,0
86,-0.013091190266758916,0.027664247702367438,0.07988232719000375,0.05915497171401028,-0.02633357436690527,0.02573760422398531,0
87,0.021755001855625896,0.04396084904624316,0.06829367848003916,-0.05268919640507508,-0.003357520404851612,0.02920246890817795,0
88,0.007576867782488792,0.0029032868349274286,-0.07060890434277196,-0.11607852747476759,0.039443996126009864,0.044931399835144485,0
89,-0.007513640840583126,-0.06046310077207726,0.0244265046262798,0.01888879319586579,-0.03437378046364392,-0.01804351800094053,0
90,-0.009683634417700288,0.031217478967341773,-0.03186269035586452,-0.005594320159782966,0.003232245818593476,0.01713656077658339,0
91,-0.08582170871748888,-0.07033805039796108,-0.017250415540605846,-0.05374374953209125,-0.05126727455168832,-0.02948836832811488,0
92,-0.07299966628520026,-0.05119802757409846,0.05426838942122844,0.003479631788898877,-0.022373818029723533,-0.0049287764659692165,0
93,-0.022260440364370856,-0.06975812317869381,-0.011393987596369568,0.0714226017633538,0.0008012832724632761,0.019568434478466797,0
94,-0.043282182189176184,-0.0177349378855063,0.03233067463039635,0.03346456685743796,-0.06097863651169445,0.0332772370559604,0
95,-0.050611964886175836,0.022576962007348163,-0.013331251995331823,0.010169404449039885,-0.08019904424878681,0.05346225224299489,0
96,-0.06219325506546022,-0.009137083598055633,-0.016116264310224754,0.0023651619839941017,-0.050486366093953294,-0.013206355949209533,0
97,-0.013541220772769397,0.06836372801006325,0.06520154972053929,-0.011057288128963425,0.004654075650794285,0.03116660543698241,0
98,-0.06437735670177776,0.12257365435022335,-0.06716640247856781,-0.01424917014881373,0.0460188886456606,-0.0035853319556737144,0
99,0.13262329444415394,0.022430918340582383,0.009519766021179765,0.08224808328691798,0.05175219265995208,0.12855074542356093,0
100,0.2951634252968408,0.20817567274380047,0.2404584955967153,0.31355472837271536,0.1803313256102853,0.19265783870194944,0
101,0.4886129991526565,0.44319256206047997,0.48194597371296427,0.47540128407376403,0.3976524106356854,0.4797468291287206,0
102,0.9054340525433937,0.9655048012233415,0.8461770128195588,0.911889092304285,0.9090419262634408,0.8392162143825856,0
103,1.4366895855443096,1.469239207140922,1.516719872595846,1.425785346318753,1.4231932314947857,1.4896869418510454,0
104,2.277970751903984,2.2381681578666117,2.19798727885174,2.3453665479864196,2.341874653348295,2.2467854678745356,0
105,3.201369915710063,3.2198763080634585,3.2672765294019652,3.1703983577593204,3.3730396396493427,3.2574632539060633,0
106,4.322394548996597,4.364305875950239,4.322149748812458,4.27450648921808,4.320188010811325,4.293806810120449,0
107,5.299557393149618,5.36042404177892,5.250990069761155,5.385338503835892,5.3355951809946,5.360851033216125,0
108,6.2778795961119735,6.285083376780275,6.3526926792629075,6.261787632714046,6.250458646699518,6.3201462510218915,0
109,6.952980874112711,6.870352177365597,6.911372603050627,6.886852108581873,6.867148407385901,6.856128157725367,0
110,6.99373310182258,6.926836575899338,6.943858881276084,6.955594380183212,6.980884064808088,6.960506055036172,0
111,6.472019853751663,6.465761293424222,6.47268655907948,6.511261328308128,6.424776250183505,6.352266639713944,0
112,5.3995270741838475,5.336252755309215,5.391122834781584,5.409013618198421,5.410912847982851,5.44645304599089,0
113,3.8172250419298437,3.8556178117272313,3.8955280450136933,3.8347020532653566,3.726208581126113,3.8300458539605646,0
114,2.0978930483978333,2.0656176332124274,2.0514539658181006,2.034985884783244,2.078437426712981,2.16880787407396,0
115,0.17360308727402127,0.2848340216908245,0.23845092487925026,0.23178829937494275,0.19298988221808894,0.23031317335416646,0
116,-1.3272541673182088,-1.393264564782781,-1.3934509567707887,-1.4167095652288728,-1.3560540266383758,-1.3404423035492834,0
117,-2.5468827954430147,-2.560545295011897,-2.6304788223205198,-2.584669092788997,-2.5284688250597207,-2.551995686006041,0
118,-3.0189784831085564,-3.115252533851893,-3.0237616597984593,-3.03200218016213,-2.969316939297446,-3.01732154948246,0
119,-2.872040896304308,-2.8528847039917777,-2.899596422709809,-2.8960448483060897,-2.7477054806431283,-2.7463197014319247,0
120,-2.244460820504366,-2.1490121342766266,-2.1572118797631843,-2.1980196186781638,-2.2412738441603235,-2.1839566185740056,0
121,-1.2311381143093754,-1.1718563043315613,-1.1354108279186361,-1.1973528026193254,-1.1435037126539993,-1.212186721525866,0
122,-0.1488061585631749,-0.19303088980059138,-0.12970545946772785,-0.059518988824783514,-0.19115416133283228,-0.19260269232287064,0
123,0.8529145520235558,0.8353160835338264,0.8525455902364623,0.8233939390402893,0.8586996529222009,0.8657148206520857,0
124,1.4152176006053683,1.414683341452731,1.4844346470138632,1.4534066715347038,1.454953538919295,1.496259479074772,0
125,1.6462074409282337,1.5509423878591468,1.5318703916832852,1.644526740516264,1.4961217576275896,1.6173618021604035,0
126,1.3548014116677896,1.357554819645988,1.3932989679089443,1.3616241363931552,1.4043232336309417,1.3115365427133767,0
127,0.9158253777255561,0.892421318202523,0.8591117914748594,0.9285439954343369,0.9313716868266009,0.8209244625190182,0
128,0.3439450391670049,0.23374662829225934,0.33778606183275023,0.4068573385114014,0.3219027924308762,0.3052388721632045,0
129,-0.21111672601416162,-0.23139379504380958,-0.2864514332726893,-0.23451632587808913,-0.1019552061988944,-0.21795012795394453,0
130,-0.6631508171847409,-0.6144696231966792,-0.6073666175339889,-0.572884297248162,-0.6467656989143492,-0.6168395193155896,0
131,-0.8293065671902387,-0.8291774458690037,-0.7831327348497507,-0.8530038093859011,-0.7243111508705998,-0.8399767574821397,0
132,-0.709274016698102,-0.6476645280230515,-0.7024894962631337,-0.6834253464492014,-0.6917064184368614,-0.7275680141259206,0
133,-0.4732270587641131,-0.4046213864727415,-0.4892604705059939,-0.4118416601659869,-0.42355622341097476,-0.46870210377372806,0
134,-0.13933700471009294,-0.18545101111788398,-0.25063339895935094,-0.2544367335277069,-0.21146193355110612,-0.18310321656363507,0
135,0.05086328969971252,0.04216425589952041,0.030643691021013074,0.008617824478584196,0.019914555993897826,0.03458518152237855,0
136,0.3019908042889656,0.29894780535725185,0.2882756988679262,0.2668149403593308,0.28818392305284835,0.09956801780932256,0
137,0.34890464671219773,0.37651308422823654,0.4148576888914627,0.3209241204467559,0.27169044959672933,0.26647639678474483,0
138,0.35138060835728135,0.2717165403254349,0.2676591947840127,0.3096585146637527,0.3490146608085398,0.2765702134912772,0
139,0.16124620954726848,0.20051438362964824,0.2716751429943992,0.22454524625499517,0.229773848449852,0.2066885022878678,0
140,0.004411698145040291,0.0769698275560926,0.0022740335507324266,0.05795700467644187,0.07790591871775096,0.011589482682409669,0
141,-0.05196785055560496,0.011623550286477706,0.004517533048482521,-0.020594527865941965,-0.015272995623362305,-0.02781315112019947,0
142,-0.013508368811269947,0.0006177447492071442,-0.15819491969988497,-0.1055699527410296,-0.1154782091275106,-0.06457480674904666,0
143,-0.09416893348531699,-0.10883122044085446,-0.16835672227393944,-0.1946881493917772,-0.13229555553831646,-0.18515140147235493,0
144,-0.11264880996785522,-0.028671873628690003,-0.09828950669803967,-0.1296474551069267,-0.1385506289191611,-0.08049007701180771,0
145,-0.053774165508984964,-0.0136708588069607,-0.15166235851238588,-0.10444613632078924,-0.07038975019879902,-0.10974126250805445,0
146,-0.024564717030085798,-0.03709654850035626,0.020186382837752013,-0.06142478537540756,0.016029823479507762,0.04808652661969359,0
147,0.022752623373118397,0.012454209223179963,0.07399817125188199,0.028635679123659417,0.009787273232769622,-0.004409698830409595,0
148,-0.014527301961364886,0.07020994041887127,-0.00876704274960283,0.07135678461033586,-0.018180180998015657,0.09157434017256975,0
149,0.03395120060953856,0.05023206134476143,-0.042947022423569146,0.10789840452074151,0.04982618094366207,0.1218492299459624,0
150,0.09455761855330774,-0.014836985787303886,0.04477045470764359,0.009085066643519475,-0.04533358543149762,0.05708844010361952,0
151,-0.040759855527326236,0.05909871648522102,-0.012986105203762074,0.045753566322274314,0.09539559181565857,0.04531001494040361,0
152,0.0019078950471907413,-0.048436530003319586,-0.06964963562214059,-0.04751498348538686,0.0052327787101863425,-0.005597458904586408,0
153,0.010999479013707743,-0.05288199255628567,0.03575490652974149,0.029708829524115833,0.009047858230943756,-0.010706591195891044,0
154,-0.011996582771854808,-0.06594180061399357,-0.10805706910524947,0.055610506569396596,0.06404292804382523,-0.025047987365097737,0
155,-0.012233096851234887,-0.006450710077198284,-0.07847028617884409,-0.06752005920056323,0.118715902644287,-0.07277643324905275,0
156,-0.02616842684581496,-0.015494194975620604,-0.08662694398939098,0.020353684898720206,0.0376611351257435,-0.010150963246078872,0
157,0.05582740883312005,-0.037299471424291596,0.030157957511404446,0.04645120814965063,0.022200193530781107,-0.06864007125651651,0
158,-0.026408901311783386,-0.008235802485737685,-0.00760238771558297,-0.05655260380333524,0.06863564993429468,0.03959518306059643,0
159,-0.018018185241556156,-0.05280285431001047,-0.08111735987648151,-0.027682536531071632,0.00451992315944603,0.0494919846244362,0
160,0.02157389195574486,-0.034042943421265875,-0.05031567188120143,-0.008791232050392193,0.027934094902794696,-0.07944826309629553,0
161,-0.08276484915344044,-0.10772194052893043,0.022626774613227908,-0.05319531604083629,0.005931299356554502,-0.08251055841578707,0
162,0.008596384970184641,-0.042448151330282145,-0.012864832647716816,-0.06322730049903998,-0.08381553038725444,-0.05943787324774559,0
163,0.005685652784404964,-0.0011754347542714645,0.0694894605427424,0.0036181525113870663,-0.04783023280171975,-0.016058171976504963,0
164,0.015398199597662622,-0.018260873153435386,0.03588442654946079,-0.08480099768325282,0.07165871310691206,-0.04134651589984141,0
165,-0.0427416661786502,0.04218277722787694,0.01030368241398794,-0.001848937929713361,0.025487654845015164,-0.005610799521285704,0
166,0.03132983379490754,0.000613692227338384,-0.0360063795982135,-0.0454932556206258,0.014621618700199632,0.05928963288465056,0
167,-0.06140925298506234,0.004905247757519792,0.03075277995467821,-0.09032755302318482,-0.008861969072228113,-0.009692531868124278,0
168,-0.014181902548162555,-0.0013261360239521416,0.053526120376535556,0.052415625531496264,0.06055026626311862,0.05625441810938948,0
169,0.04875078129290826,-0.07543096883624853,0.0937600208249504,0.004306675457421661,-0.0026275302752444994,-0.03960921542002003,0
170,-0.053978841128457404,-0.038231532033723724,-0.07172103832238169,0.05592379944270024,0.04330405853875734,0.04936321257972082,0
171,0.015079850002501035,-0.02836832160898509,0.04035532026766614,-0.04372655104554789,-0.043261613007028465,-0.03815645519920648,0
172,-0.04891609935501224,0.0013991593765163568,0.003025212875990597,0.027010012530977658,0.03418933142310412,0.06835101406620563,0
173,-0.03860082330933077,-0.009844257618604987,-0.008352629762113914,0.05479443912041928,-0.08116074496213901,0.030702442473351382,0
174,0.010751205087861516,0.010854090440780312,0.01898835564718819,0.0203853830984282,0.056194786672062645,-0.08202635333728939,0
175,0.0895555478344669,-0.018701605641208187,-0.011314310538258668,0.041828161424366524,0.0589957172791167,0.03390715493280317,0
176,-0.09875763135441636,0.05009749573673737,-0.04760003237024927,-0.069829438549837,0.050986688879940005,-0.04770160720226481,0
177,-0.025854001833336845,-0.00874567718207494,0.1079604157341444,-0.011461669042861812,-0.11135433144554185,0.052911032162859764,0
178,0.004213864382291043,-0.004027113393074027,0.011453670579910463,-0.028279525124436728,-0.021823762139240463,0.0136449055295037,0
179,0.019285103939959632,0.001403102959558658,-0.09302054173806493,0.08998661615427926,0.07002325586789689,-0.05323254303732959,0
180,0.026340959970680273,-0.07571891708843669,-0.006415590316979952,0.004108160356090083,0.03133597023778872,-0.08939755268103916,0
181,-0.013900853430593432,-0.028852500320077745,0.06362469360575551,0.108854601664334,-0.046423168789647924,0.042536042524471525,0
182,-0.11915907188479255,0.01663872456251625,-0.006903471778028121,0.04314975361884303,-0.028724898492136497,0.016682332367956455,0
183,0.0320048223336449,0.01941044515232441,-0.06694220672914107,-0.02099569018039146,-0.026935617792928808,0.07604999577150877,0
184,-0.055395458348564484,0.027156064416716336,-0.03663234131335219,0.05779387113630657,0.02474751831602339,-0.057450035197387526,0
185,0.053148868846027146,-0.0007869078319740076,-0.016798830913649723,-0.014940447194033509,0.10529276465998036,0.009856285768171715,0
186,-0.004775163846490142,0.016425924783944362,0.05957356471594331,0.03302653429867085,0.008990320987812033,0.0798635029275002,0
187,0.019832241333821294,0.07697894309752804,-0.08197621649058598,-0.00843022286996959,-0.05896102761997088,0.00948840485909926,0
188,-0.028368308319638907,0.012580277565154308,-0.009844436835719544,0.10790060458809662,-0.051891163400892774,-0.009234405361272595,0
189,-0.030442548048649862,-0.049291857593041485,-0.03678150477422334,-0.07535718415023039,-0.005271961418127975,-0.032394060691762004,0
190,0.03061252003132839,-0.02849626880719153,-0.01530795855419489,0.008529065044508441,-0.022196919905509708,-0.030082321335611995,0
191,0.04559846098448094,0.06836425524742594,0.10388958127805673,-0.0718031456362323,-0.06732129772520351,-0.053646757556517675,0
192,-0.053381246647796414,-0.04093045389126753,-0.03473428915385175,-0.019748949556533935,-0.016659747568247067,-0.051314940749235344,0
193,0.038020932051906466,0.006040529798377376,-0.09631659555226724,-0.06555669944441044,-0.09849885939861,0.04733301943774526,0
194,0.09491586341015577,0.036293836803554254,-0.007797972140973808,0.029048819591355208,-0.005780039710032921,0.02487298709850337,0
195,0.003257978864797649,-0.01834924585992837,0.04495214109125548,-0.10027377522640968,-0.04492752427827756,-0.13826072913330884,0
196,-0.021674469548634126,-0.01608188122341246,-0.03939861990620285,0.030563135824431424,-0.1015962165894877,0.014255090980437608,0
197,0.07017784664929679,0.06333658821305907,0.01527375131608804,0.11724940111821164,-0.004651312993976163,-0.0027774884510302694,0
198,-0.03851088654190868,0.0758497933372247,0.037211060071633356,0.020714520105796233,-0.04799915038688998,0.009664758106351798,0
199,0.12920391089639893,0.06576522822000463,0.13927830154668794,0.007105520818663884,0.09477413590484335,0.04289299189198888,0
200,0.2438768138945468,0.18395408501858473,0.1425314967035306,0.23181274433796,0.22959767763501213,0.21180479208181452,0
201,0.3322940218486084,0.45130709081727827,0.4990470119101587,0.479808519380971,0.38953600262278354,0.42982145879686395,0
202,0.7688487327426637,0.699175961157145,0.7133088607285974,0.8007865331675519,0.6726535510702332,0.7856727898453111,0
203,1.2358205823406678,1.26575907111529,1.2804674017979458,1.1916614824094074,1.2738408684414049,1.3551569122922673,0
204,2.017445394586885,2.044889161260119,2.0497842796096113,1.9854946565313225,2.08866799146103,1.9973692403616379,0
205,3.0105320852067465,2.9988262475267167,2.9820258300757745,3.0610703792380427,3.0469243275326487,3.002917374295048,0
206,4.07022453396264,4.070645197424315,4.060862744174344,4.097230431916033,4.041572613114418,4.001942020489843,0
207,5.123775847502579,5.078164102775052,4.985387843839188,5.157488284990487,5.110540872141766,5.190385302427405,0
208,6.042164666986634,6.080072253194622,6.068836584966324,6.033116358986768,5.940474754090739,6.0951663598302535,0
209,6.693192328378995,6.768288896035653,6.666037218658018,6.706930044255924,6.685188815050881,6.718115207769984,0
210,6.974634693394065,7.022295259333223,6.908345736583963,6.970692352442248,6.962018638660518,6.892874438266036,0
211,6.625394830231249,6.546512514205334,6.540508082914268,6.606350229492958,6.6473429106395505,6.568964166289971,0
212,5.638754398335887,5.656552316293622,5.633778256940554,5.688185365934912,5.673723813444999,5.701579010845494,0
213,4.185485453314146,4.331496835773258,4.201688508768786,4.230596933153734,4.176394274447909,4.224506700927335,0
214,2.4806663692666566,2.5598693079677752,2.420455975869846,2.554688808676781,2.508057185616147,2.4446669454741214,0
215,0.6726156711057848,0.6650306370713766,0.6843947968084265,0.679655233019863,0.7130386571263364,0.6457722051116471,0
216,-1.0805393252029396,-1.0814292943510047,-1.048527169505406,-1.1760095006591922,-1.040625111194175,-1.1354867188096733,0
217,-2.3950670671315057,-2.3936123942565635,-2.3075756119936184,-2.2943383045269488,-2.405825089960801,-2.3843955171349784,0
218,-3.003381064473213,-2.8853365057824343,-2.9704187810126776,-2.990850162934575,-2.987191742754488,-3.05823055803018,0
219,-2.8725781844094467,-2.888948179041983,-2.944452319915678,-2.9226716660767424,-2.8890474987930643,-2.924851773650367,0
220,-2.352232971926181,-2.3427153419877147,-2.4195920444408228,-2.3808830901504017,-2.365481394768296,-2.4487809325648824,0
221,-1.5134970532865546,-1.621546438735481,-1.4680402642469486,-1.4446232418853722,-1.556708290717648,-1.4392530553484264,0
222,-0.37260285055368025,-0.4675023618313612,-0.2865849578492166,-0.42222350421912647,-0.4189255131183745,-0.41572271792425586,0
223,0.6827776191732264,0.6620901098719256,0.6348741681784057,0.6441147773151027,0.6371285130126522,0.6057814676114253,0
224,1.3724597246727495,1.403804809797127,1.2965793512621855,1.3623610834386806,1.3891464617856804,1.4035357595715385,0
225,1.65378378728122,1.5605433308704761,1.6280449443163518,1.6341970884950447,1.6329530516149295,1.5761854741386907,0
226,1.3836791168636673,1.4235223157890515,1.406619650168734,1.4161428426898401,1.510324985435587,1.4519651801416031,0
227,1.0102815189697711,1.0595427691170838,1.0028791084615847,1.1285288213165359,1.0902336786461562,1.0953535858472185,0
228,0.49930558866264213,0.5014396480041161,0.489000380277933,0.4817736232829664,0.43601538781867666,0.3890374496610654,0
229,-0.060010210860632386,-0.07516802751023544,-0.08978880014032639,-0.12986524686549228,-0.11430666962980487,-0.09044997868820885,0
230,-0.5728623347315484,-0.559065238241251,-0.5700876240172869,-0.5888926692682064,-0.5666986441029868,-0.6101747773594965,0
231,-0.6329641654259512,-0.7863960838920897,-0.8410367194430729,-0.8095054804324963,-0.7653251513177854,-0.7435804304119414,0
232,-0.7295242839689755,-0.7329401879205646,-0.7845675428305791,-0.7947245328460606,-0.7474261946600956,-0.7883351009409763,0
233,-0.5354789792472439,-0.5052756385517416,-0.5465110539333141,-0.5679182033156845,-0.5444135233251785,-0.5721313617096089,0
234,-0.2241759086394114,-0.2830952655489685,-0.3261543960822018,-0.2526884840929882,-0.18922978418862102,-0.26854548755716245,0
235,0.05244950387961861,0.02585909743689253,-0.03666536343377828,-0.08724456515278517,-0.04911815077474414,-0.06917042409307131,0
236,0.2612187807456462,0.1702353447292947,0.18699354197706455,0.12402546316604439,0.19138204279398885,0.18501488453478268,0
237,0.34640636445618284,0.33850531639664816,0.32598454313131964,0.36739184276592957,0.32513465235218997,0.38127098959235434,0
238,0.26874619615221756,0.33357400349162974,0.28049426345286477,0.3282102097762926,0.3364914186602439,0.3775903242415291,0
239,0.2826791597156309,0.2690008484182117,0.23746430390203466,0.3103201441362323,0.2773265132416183,0.21603417687326054,0
240,0.17399110071463336,0.05797075174225204,0.15109862940008695,0.18506370683805154,0.09822565759101912,0.16990400970717162,0
241,0.004240492181424018,-0.08355491836045091,-0.011184692862152904,-0.05578194306271207,0.0439169251935666,0.01139447008921774,0
242,-0.14759731508603097,-0.08829157170791439,-0.009174467510040071,-0.08399514390545754,-0.06896256369473142,-0.1639678864191948,0
243,-0.1448738889838816,-0.13186580165342948,-0.08328386033738629,-0.13434988241052975,-0.029335397117757553,-0.1605329534765055,0
244,-0.10940911853137528,-0.11452970357418543,-0.09813708186774495,-0.08565647656259143,-0.1520203265008559,-0.1154086252924941,0
245,-0.10345171631571899,-0.0720422531833913,-0.08048067646237783,-0.01084926148997832,0.009325095521156027,-0.06814631596784021,0
246,-0.06416334980758204,-0.06158376963281129,-0.05986724585682507,-0.024924194516758466,-0.11161535645419815,-0.01774664843985787,0
247,0.021472004115856074,-0.055720196884803876,0.06344515630227157,-0.07850705939748873,-0.01969023725319092,0.02965163039654121,0
248,0.01466014350878574,-0.01065858817164465,0.01996601607254779,0.008359461002307871,0.047944788868427915,0.0180728847199036,0
249,0.059260307814007894,0.028851995619200214,0.0828523009201177,0.03867041300750168,0.05921459003398722,0.13570371391777303,0
250,0.027516748440246833,0.09253614174479181,0.02148381316023941,-0.025651605963339864,0.0693289483139252,0.015270950042229505,0
251,-0.06299728541737556,0.03227061964502047,-0.01037050187763961,0.02199066378598017,0.07745189567023338,-0.01954266908868927,0
252,0.0015863383547231936,0.03382627362991143,0.02737679754961149,-0.03362426009166382,0.0023204471991230937,0.02396908537656291,0
253,-0.017808595585521496,-0.026548473358967827,0.07225350853165717,0.013328929783086757,-0.01070273811246335,-0.032503534206317845,0
254,-0.029098094884520562,-0.10541018696229622,-0.03916407791750465,-0.081477724646519,0.0307645403236747,0.003973206153074178,0
255,0.07799763785909475,-0.018339865540687405,0.06968354833364006,-0.13672169736681603,-0.012983489439430729,0.012000525814073668,0
256,0.0758840255819471,0.061719216628805286,0.0527236168126786,0.028208765721941045,0.003833983599609899,-0.018479861197075835,0
257,-0.020255366747162374,0.045910917716886476,-0.07268948454799629,0.014694162055281295,-0.006944866206493089,0.15702560089463502,0
258,0.07230014051374019,0.02152102040484366,-0.043321158575916154,0.007005422460967634,0.007972526435996127,0.07190031496165178,0
259,0.09349268152667864,0.01955090359914609,-0.0035968683413011237,0.07838151843962787,0.058884487404425374,0.028354917088397012,0
260,0.03430162683055866,0.01570354205077624,-0.08772123326763775,0.014637769578851871,0.015236460103781348,0.010426849542801955,0
261,-0.010567989064648751,-0.019073261090784426,0.02466608323512465,-0.007763422376987878,-0.04051152321750346,-0.0031774777143724203,0
262,-0.007660024513941959,0.04155991207778651,0.08183355073032543,-0.057271322588855963,-0.025740552129303703,0.08500308411502054,0
263,-0.010661355363320208,-0.06323720103518302,0.009880690083409673,-0.012985878659094171,0.006849639874370436,-0.11663052619584503,0
264,-0.0733488377991444,-0.06882888400755907,-0.042090197801190526,0.005390627470273061,0.07490309544432942,-0.004454810727415712,0
265,0.04942779586171293,-0.01820129338115114,-0.05791049299185668,0.019660563873530608,-0.009290457823894878,0.0831687211866433,0
266,-0.09493087949427213,-0.09272836475032119,0.03052161405535342,-0.02850058890559135,-0.041480739593353695,-0.05728757226793864,0
267,-0.0305003866317395,0.02815075896731133,0.07267037089563722,-0.07070077234762631,0.008027593634944739,0.053751265067986664,0
268,0.06004866360527764,0.00015168423338628758,-0.02108586438867377,-0.08905238886968103,0.015650567019899933,-0.019323082005342645,0
269,-0.027702970381189438,0.08383972417960463,0.005697503075116239,-0.0158378335743178,0.07179647783992672,0.05415956302483631,0
270,0.00952902589899285,0.04347975038882813,0.021534429693153577,-0.05398550552296227,0.07097372658229768,-0.03090664759407273,0
271,0.14699008643493403,-0.030146100757632303,0.04311920285246239,-0.07331710315236943,0.03260769870563545,-0.03902920996059907,0
272,0.0014766322712704942,-0.0899539572703311,0.10702981937048381,-0.013113511291163008,-0.0168069428361073,-0.027013852375082827,0
273,-0.005353327007764237,0.09158494405652252,0.06707604775151944,-0.046430514103285636,0.012164446993727344,-0.029511810740688302,0
274,0.08486076001514259,-0.06280650147257025,0.02092208749208218,0.05295366130217787,0.05917611531274142,-0.025609206328190522,0
275,0.03630545210060367,0.04144506836985275,-0.005217311931917103,-0.03071002160592756,-0.06651462346847892,0.0023008530190089358,0
276,-0.032888078690227536,-0.040758677800483784,-0.0016497819584518816,0.08403957631993395,0.03385111426258565,0.01772472993556038,0
277,0.03697964931440916,-0.012641461171109416,0.020933253682678177,-0.09391951217638018,-0.01903966551277622,-0.04275359146464594,0
278,0.008019027770243445,0.07191205674461403,-0.09121858387963838,-0.03986172420084041,0.016831581504361367,0.01599649798945643,0
279,0.060644517214264386,0.005012728145139644,0.049800665796630145,-0.03659452316449665,-0.030444590762931996,-0.008097581671415149,0
280,0.014200812907294,-0.009467560712456188,0.05488529370883858,0.05996354804962572,0.04295837924183447,0.007348570769222382,0
281,0.005227164377175985,-0.02146377518766601,-0.013646228858223357,-0.02703787102305722,-0.0434998256998763,-0.043506546229692925,0
282,0.008934390212759625,-0.00488483863516598,0.019219113795607284,0.040906697540161456,0.022791774879773265,0.05602014477163318,0
283,-0.06824736036063724,0.004321270726455172,0.0024765414568823476,-0.08027237844212655,0.16095057641570476,0.002520305764304725,0
284,-0.06269786213747702,-0.0028603675142141473,0.009225963956262285,-0.06128632849492377,0.0008788607290121815,0.05249591387486586,0
285,0.006762550437381179,0.026788967209912102,0.02595741639418735,-0.038891330128495,-0.005269172293492183,-0.06470109154133175,0
286,-0.028332128441488094,-0.010705604258695234,-0.05408014333791213,0.020843715127946645,-0.011251463145982948,-0.052389976211872205,0
287,0.038417329379288406,0.015551273511068163,-0.0160656805701322,-0.05427768441818737,0.08000567334668242,-0.013026489268239266,0
288,-0.0007187734067011968,-0.05198632022656826,-0.07670790844208775,0.09973789174694676,0.032085962876428925,-0.027584212780985086,0
289,-0.055029967346275833,0.0687661388452172,-0.02834174633747732,0.040869634554372244,0.001803465647263961,-0.03749780604379171,0
290,-0.051082165050532854,0.05284304166736314,-0.06739626345345377,0.01912519152510191,-0.03710631647347105,-0.07536610476687497,0
291,-0.0053000810176819105,0.0463546878598031,-0.021649952172587007,-0.02198543250684075,-0.051605027966211185,-0.08126337285094593,0
292,0.05559385276629406,-0.030656575685937576,0.04149491187313181,0.03998224562345927,0.0022584449209989074,0.013295349426950405,0
293,0.0565097448393736,-0.0006341670971193668,-0.013856202106013979,-0.01013408694053239,-0.023095019970277644,-0.01670336736441514,0
294,0.02527025975528985,0.03721861410225585,0.01700036229059435,-0.01657424719136074,0.010861298131087587,-0.11840309613441757,0
295,0.010693090784771047,-0.01666564039140568,0.03563798520096937,-0.0017073066723053028,0.07171478786565204,0.03119917985580727,0
296,0.022691279378970874,-0.03757290206986576,-0.03053031083921557,0.042575803215409415,0.038716151093585525,0.07590419936436264,0
297,-0.03807735521912375,0.021140965151241746,0.013730306000145635,0.03102191237137017,-0.043756909066366284,-0.012803263233666453,0
298,0.052826912673750906,-0.129962069157918,0.05232173728245492,-0.03157308097846387,0.03620875873167659,-0.005969401134578454,0
299,0.12776912311792332,0.0755180806079861,0.11717517779126113,0.07407655155848174,0.08021737793848893,0.022906121299090535,0
300,0.07576977051072806,0.17183714389814742,0.17819066664024183,0.05166568958004614,0.16721738990690937,0.16513099168127698,0
301,0.40945964704772464,0.3380406587051956,0.25354232144485767,0.26983150635187075,0.30791494575140427,0.29717835341926246,0
302,0.680495216850254,0.6579046820013323,0.6075764532313205,0.6470614460590697,0.6422054720814504,0.6819428053130001,0
303,1.2568556023398862,1.2368233129663702,1.1666108262965313,1.1096587519596106,1.2926768279925824,1.21720733196114,0
304,1.8633912624944762,1.9184535798261142,1.7514888347680586,1.867150046176243,1.8783385152901246,1.8533413247008375,0
305,2.7270703479730405,2.7595378693948374,2.787664629459387,2.731736871455738,2.777708426192231,2.7950213709340255,0
306,3.7574062830102495,3.812697716200475,3.844329871724443,3.7914378124520804,3.775067247162853,3.831537444054195,0
307,4.926526029088052,4.820490249952252,4.913867146401206,4.879416940639755,4.851792651036971,4.792216985641215,0
308,5.898895932457486,5.840401226816919,5.853967164423844,5.895693030284445,5.839404868082381,5.8228986848447555,0
309,6.560820851319431,6.62397161635743,6.642384943054037,6.6166162664707535,6.65673920686122,6.635306638886314,0
310,7.000223950233368,6.934084797355567,6.953106687898351,7.085544468740403,6.913514057249843,7.039538524671752,0
311,6.770735474287175,6.769056329980372,6.731865740832295,6.727314665348767,6.794519869935493,6.7473257307307675,0
312,5.844223519236869,5.973138110369942,6.01055775415862,5.886583941466932,5.965621332171537,5.854293020217222,0
313,4.657618748605674,4.509409138705141,4.611773002520847,4.638614637509067,4.5444432135268125,4.628898972012333,0
314,2.8972830466560424,2.9686786258171836,2.8560346903913056,2.913875226084346,3.0043593216888085,2.8692930191714727,0
315,1.0656883224780742,1.0718729018190163,1.057476965240065,1.1410017863401833,1.0924143888431028,1.1655372512901516,0
316,-0.6294994176862787,-0.7005844248528316,-0.6582027202586326,-0.7116312592546263,-0.6782834123793764,-0.7004775813566186,0
317,-2.053279580920264,-2.0654882880745578,-1.9880631956638546,-2.0459494451661935,-2.0757983710072256,-2.1082305501828813,0
318,-2.9393696077348737,-2.91027645476475,-2.889784458743831,-2.925731327668403,-2.8834915277788413,-2.867788651943323,0
319,-3.0646256017711573,-2.9874117156889852,-2.9873545498935568,-2.9672500901405194,-2.9003803368503407,-2.9296650753465165,0
320,-2.640371571741879,-2.5673222382138934,-2.5599553277329226,-2.540767902872757,-2.6342354916524844,-2.5566378058506554,0
321,-1.673668442733461,-1.756864642894874,-1.752515836994092,-1.7355896109830224,-1.7120449419407122,-1.750429292402772,0
322,-0.6955500297105737,-0.7180627933478545,-0.6560863954404469,-0.6098250239209249,-0.6620209774052223,-0.6454197638383414,0
323,0.3656425624319469,0.42667817364709953,0.3983341321556843,0.426535005716634,0.46353439614804376,0.42464505200065417,0
324,1.281299658903632,1.2455746670896235,1.2188807564455892,1.1271657390847878,1.2401807102751041,1.2169811120314284,0
325,1.5286661112158755,1.5481877191854072,1.5700190081035819,1.6082279510550508,1.6616661575698533,1.5344140924638103,0
326,1.5330086330842356,1.5224496613530614,1.456992532360247,1.5393158198369084,1.5630745735049496,1.5189851461438753,0
327,1.1637825444739924,1.1047812253763953,1.1346243336431638,1.0865536347112985,1.2402594191563026,1.1393084223770606,0
328,0.6151950329109468,0.6204447598334082,0.7069872948533017,0.628114842406409,0.5481042684887286,0.5985746969208989,0
329,-0.020336696456173274,0.01928667748501632,-0.009364560141602314,0.054281143528103495,0.08100193338841,-0.014985044330785478,0
330,-0.3796046469552226,-0.41631564432790946,-0.5230102743656851,-0.5222008552633278,-0.3980585754314614,-0.5008538058782955,0
331,-0.8002860931647894,-0.7833683583346279,-0.7286749818960595,-0.7011869397850807,-0.7662626701741458,-0.7518493648257772,0
332,-0.7058376892561795,-0.8059790611138964,-0.7616446657324782,-0.737040345037488,-0.7943284784936151,-0.7147134781431261,0
333,-0.5387617824780382,-0.5799761857535419,-0.6097780927418047,-0.6195713100522476,-0.5375300360314383,-0.6043567028794203,0
334,-0.34741099207606324,-0.3515489814093542,-0.3510368788533994,-0.207036484329446,-0.3359749037794891,-0.2977643298167849,0
335,0.0018364265599282795,-0.03510727144545166,-0.046576121410913836,-0.0874378179630762,-0.0809841152816248,-0.07983876563737456,0
336,0.16931733619984432,0.18311955347536527,0.25538426844231055,0.17589734026034454,0.1801446455261671,0.13430354065198863,0
337,0.2971656034491282,0.35309574144783107,0.30546854960992853,0.191278375725562,0.3087261724275264,0.2713228096779893,0
338,0.3564464329996281,0.4850433339130581,0.3625042916285499,0.38583416650081104,0.3260275080681406,0.36512810329507694,0
339,0.22858487120980395,0.2889483039245613,0.33769958819853985,0.23365690711882942,0.21184976636737332,0.19563043405684571,0
340,0.20943306343151727,0.07861174576573221,0.09263030352166002,0.16082435373078272,0.09337278298792895,0.09345838966176923,0
341,0.01619791089957899,-0.029499192646295448,-0.004566305777227445,0.07206870465839241,-0.09828415053937048,0.07444181019802748,0
342,-0.010136144117444693,0.011637815196105655,-0.06721304993842504,-0.13162918217178304,-0.1432657685444032,-0.069386952073387,0
343,-0.07335575080246944,-0.07177728529412569,-0.10650465543056548,-0.1492335335316532,-0.12656013577598832,-0.08342073444259991,0
344,-0.13369092860723153,-0.0828686343282279,-0.03428818080258364,-0.0792308563735308,-0.0660392263278921,-0.0889998308700843,0
345,-0.0853783213518573,-0.13208405975143894,-0.1517645324617382,-0.12736815751023703,-0.1344181503552204,-0.1299042293539448,0
346,-0.013804246939706714,-0.029952760605777895,-0.000799047230673755,-0.009629313242156774,0.022550986444487206,-0.1282024849368041,0
347,0.022834872286095608,-0.032965050200349656,0.06481662968138864,0.02033330780247294,0.033824755666259664,0.025632436822825958,0
348,-0.0025746623774420205,0.013852644749677671,-0.0005001221954519797,0.04577116701204746,0.03192334666274804,0.09116523790497212,0
349,-0.023108783230832007,-0.038003233979148676,0.16306692553170982,0.11242713180693405,0.02661920366086461,0.07190853160335214,0
350,0.07969157809210839,0.0069616565289684525,0.148086797200089,-0.044902503745443495,0.004630066695814641,0.03994874431959469,0
351,0.028015007403873835,0.03634175100139177,0.08186448053953782,0.1503263014812533,0.037918701209167294,-0.018328393923492666,0
352,-0.04457135564538846,0.031874890251553475,0.05780035351360711,-0.019165655456466507,-0.048219933646325146,0.045641893854148644,0
353,-0.003325181202178492,-0.001049492472349865,-0.04422373571076776,0.0008827543941935245,-0.08552302950678872,-0.07215756857190024,0
354,0.020576388733544868,0.009710037894707296,0.017265108611995896,0.006736429436930282,0.00010622490643997715,-0.028082029090367316,0
355,0.04528181174250755,-0.03533817894023529,-0.0941455575763141,-0.04907392679900109,-0.027784482845501005,0.03495064774332676,0
356,-0.03817661065412842,-0.06902551844865179,-0.03414740723073285,0.00438801149662597,0.012721614942158867,-0.030910460502921136,0
357,-0.06551549291753078,-0.11154840054903406,0.02085744920047808,-0.04624727647904587,-0.0013613005390755682,0.007474506363852258,0
358,0.02316267657236087,0.040502944175406834,0.07628023981375004,0.020270796656512408,-0.05548239712658479,-0.02044362947248392,0
359,0.08773706303177128,-0.0006286473616424603,-0.1642761299636471,-0.010805791744455735,0.0652199702023135,-0.1055670928582406,0
360,-0.0653048644684905,-0.06267969327971704,0.014876469122988177,-0.0709522958605267,0.02268022126667633,-0.05213894049934041,0
361,-0.0539241577942313,0.049095261286839234,0.050995631958577384,-0.0028185782060749574,-0.05290979255424323,0.05218174167401907,0
362,-0.0701098300986636,-0.0030378669447387553,0.04058219006791182,-0.04037404241603632,-0.13665239481342228,-0.11043006764958085,0
363,0.06846066849279883,-0.06393845591307483,-0.0468963948307715,-0.04119832012334447,-0.10919962340440034,-0.01358346010689716,0
364,0.004339059851161563,0.02094627315872343,0.006198859062689444,0.04308232071350116,0.041979752721191484,0.04174925652643252,0
365,0.01899041861297336,0.09481178218233743,0.021483619179876824,-0.02191613648112782,-0.08771628095808964,-0.022182068748208706,0
366,-0.035889666230671614,-0.0489552267912562,0.032821279216400615,0.010976421899496004,0.042948393482914814,-0.0010887310765480898,0
367,-0.07332741139078656,0.0104861129359364,0.031206419383970684,0.05114941880741772,0.04547720414718973,-0.02413738123776549,0
368,-0.015273589983980622,0.07711676473016252,-0.01278093800735015,0.019859957442365815,-0.0028979696563628957,0.04744203094544483,0
369,0.018258561239384723,0.032870305271988885,0.12831463589470823,-0.033223662126731765,0.09907416892956339,-0.051787006980730986,0
370,-0.08102949146073454,-0.07338207357555206,0.032654313632824124,0.026887820148140326,0.023916044614185013,-0.00983826203749042,0
371,0.01970610746772145,0.040605732890802874,0.05379072366441339,0.05511466348983907,-0.05701857477303851,-0.051393170460964574,0
372,0.0018180214054118143,0.06771405773141183,-0.024250852878081656,-0.027887313527901737,0.004758264181570935,-0.09507224972429847,0
373,0.048648323584470125,0.02867526288871813,-0.046807839926171074,0.049615219784872204,0.05628674305269695,-0.00605854156092905,0
374,0.02700732258323772,-0.060564440685006986,0.016468685926003382,0.02756779954807968,0.08511532306468615,0.022530857345735733,0
375,0.08373522382199117,0.038825950794285684,0.02623113697761664,-0.09040423718802393,-0.033926588363945194,-0.05120382910862402,0
376,-0.07563015138699368,-0.0038426103788199795,0.07681529480962833,-0.05695022754658366,-0.03753718590000272,0.014258214590810992,0
377,-0.032460984501622804,0.03553358412540744,-0.09627095232345853,0.043836615265045085,-0.009785742435064325,0.0719216622909353,0
378,0.07275549680415498,-0.015397930924513924,0.010650364381697438,-0.031335526383687085,0.04068446319986255,-0.001158630613970406,0
379,-0.05587820079127374,-0.00889508125871009,0.06580078907721777,-0.0200780795109074,-0.003041354729500391,-0.058518243076354406,0
380,0.028228060996593828,-0.016603127455810312,0.051200762456112776,-0.09016070828649851,0.01694817647471585,0.07243402254674645,0
381,-0.05122978827958527,-0.024046289066819743,-0.05271205306984209,-0.02567904070103762,0.08941008210588779,-0.07818386941517222,0
382,-0.026781496289972388,-0.05094621721099925,-0.040552796453883835,0.04745445888021673,-0.008851958810687174,-0.021312497591976294,0
383,-0.010813298622216687,-0.09378699554815323,-0.035719197041845986,-0.1176930100908115,0.03905564480504848,-0.04070760302607844,0
384,-0.01631980133906877,0.005893210936486594,-0.04233383086244725,0.05451658085615042,0.019684047196392045,-0.017891730449024392,0
385,-0.07044879483333524,0.0132088547426206,-0.019554069605754423,0.0072453387762768055,-0.05646631043853297,0.1004710262106353,0
386,0.0017618744063951585,0.013010509012203617,0.008237142909911397,0.017968546954408943,0.03198975866653668,0.06905766151101715,0
387,-0.10362502886753369,-0.04152830828235799,-0.017880049725617686,-0.027921147323847283,0.1356804800251294,-0.0013229927753316906,0
388,0.016614091347141688,0.0003425323399085903,-0.06260299676047651,0.05771417824718166,-0.11370293742404113,-0.040647535377570355,0
389,0.08379686624190412,0.02866677079584243,-0.08533762718466366,0.06102561836683753,-0.005083688768970217,-0.011350253664174267,0
390,-0.018573304911232994,0.007776736656825404,0.09833641730239984,-0.0003756341412568182,0.09968373827630482,-0.02848199639801668,0
391,0.058968830299211974,0.09281682478967124,0.07214751641353287,0.0020624106992866886,0.015386992013658576,0.07423707859380552,0
392,-0.07424417676885042,0.0839705098059325,0.04705747353467649,-0.0371775727595257,0.004863039469949927,-0.08330765092191295,0
393,-0.14294416125230328,-0.03324660594036687,-0.01126868068978416,0.03103609239690627,-0.030353803419899867,-0.04534185492215689,0
394,-0.0440715449169742,-0.018091777393719376,-0.0498668973240667,0.039511286528568314,-0.12246306241993919,0.03184236391637481,0
395,-0.0019291850910318244,0.047610307303765045,0.05573380959345251,-0.05614643406268531,-0.04386618979578415,0.011953179214070126,0
396,0.007987428887828807,0.0713958239403751,-0.028539914239098452,-0.05254461860645101,0.009543519325836967,0.03564226215702653,0
397,-0.08332096108380357,0.0650168783804431,-0.024226946735240083,-0.11013630435430986,-0.014940072371910765,0.05728784691872145,0
398,0.03726434069553713,0.0838107098486001,-0.042616800263743405,-0.027755589321563075,-0.025401187968837204,-0.0056587148654446955,0
399,-0.05602304926779919,0.06036643247486349,0.041766785604481715,0.08637883756263413,0.07010806999747722,0.0837496990020293,0
400,0.07603612159210361,0.1295533270409612,0.1060296549576327,0.0764808233594762,0.12987654656350958,0.1666095363937616,0
401,0.25125555302372393,0.32024305575804984,0.32411259394730435,0.23430759044188657,0.27960845307678783,0.32238736628832365,0
402,0.5515015464764229,0.5425717466367633,0.5750971783613017,0.5613174586871379,0.5635006745542243,0.6387385983504912,0
403,1.0315070159528907,1.002350399452113,1.026878707137726,0.9572329315918737,1.1466290078634604,1.0515100488738065,0
404,1.6348211933879104,1.7267730982546103,1.6054456837220406,1.5966884503577041,1.6562838193768956,1.5762047095355118,0
405,2.431538657084326,2.5973888034234234,2.6000921603327716,2.496405742335101,2.5425170384166993,2.519545263898286,0
406,3.5295574704063246,3.6106161204169083,3.4413750677816144,3.640231293405573,3.586649832976205,3.5611949232016844,0
407,4.741675172152579,4.573297631231649,4.7011316646412835,4.579187106545797,4.5645074578243605,4.6782047808242915,0
408,5.639779994249667,5.679219021748928,5.609016349275846,5.684467688187907,5.695391187912215,5.614905336553776,0
409,6.470606514851453,6.450772629234533,6.463606855188718,6.512262491148157,6.514032759032511,6.518254772965311,0
410,6.890210825427723,6.9099946904747815,6.887578956113387,6.92289015587819,6.770242450591185,6.885070548902267,0
411,6.926000717687597,6.8091548082929565,6.895586845488741,6.926840450365755,6.910163510263777,6.872908698685329,0
412,6.1493792733167885,6.224407878028513,6.2154987084967885,6.1816233960110045,6.182160099722628,6.16286557212574,0
413,5.001303583741691,4.835159087374829,4.8696058925564,4.9623683504225236,4.98482919910556,5.016720706682098,0
414,3.4144055385201098,3.375897317551261,3.338039390887353,3.3352484112514955,3.3716000340736643,3.3900299545288783,0
415,1.5485821017324621,1.5624983230899137,1.5815113832413918,1.5008800884396216,1.5676556138152211,1.5772403811545617,0
416,-0.3305684612506756,-0.3109707140776026,-0.3347568695142928,-0.28888874146842086,-0.2691896559443147,-0.3338433061588506,0
417,-1.8200418064222208,-1.7297735404852332,-1.8776765562474413,-1.7202417003874393,-1.7938594494822035,-1.8755846125032345,0
418,-2.757597139534693,-2.8415343773217527,-2.8345661071846413,-2.7525070987907148,-2.836919799654217,-2.776821291419352,0
419,-3.116621471564051,-3.0727217500422297,-3.0659115398858248,-3.0584367423004197,-2.994367055463031,-2.978683878873626,0
420,-2.658701087756726,-2.7241916679259686,-2.623924586231651,-2.68778287824326,-2.7435232169833847,-2.6815811896560993,0
421,-1.9310211558756438,-1.979581127534499,-1.9988272078884615,-2.0024341225353717,-2.0399062860946384,-1.9306375160691218,0
422,-0.9050917383978535,-0.8441117233464452,-0.9371207853630183,-0.9041181610422147,-0.8837628289307743,-0.8267859716194113,0
423,0.21899864310148864,0.2824913092075507,0.16257730630945322,0.1396619282783172,0.17569404697502147,0.19869788775001201,0
424,1.057300222034758,1.0978238688843696,1.0866427073580809,1.1505742017447516,1.09632274370171,1.0783188772497745,0
425,1.5876748542781032,1.5473020865569553,1.555692212467937,1.581869758643422,1.5692956641217404,1.6050593086057,0
426,1.5077485907145247,1.5849836028874187,1.5159384691251396,1.5047939751120596,1.538589525862018,1.5967453196134402,0
427,1.2057717338567169,1.3120515015705911,1.2510655939022652,1.2210825170221153,1.2894923434681747,1.1662586661960528,0
428,0.7367114917711455,0.8301154903521724,0.7624154824555543,0.7415142489062185,0.7519821324866759,0.8069309632187138,0
429,0.26954698841988867,0.12851050222294488,0.2820631804415215,0.1441225861868946,0.12365075017638781,0.12551607913399654,0
430,-0.31582971892938116,-0.34528519299413596,-0.33631580994895705,-0.25684074477202007,-0.41610633791019613,-0.3643320425589609,0
431,-0.7386996638753931,-0.7641548026220697,-0.7573460360803469,-0.7150139074628695,-0.7499219826767578,-0.7122416520665578,0
432,-0.8013499423195573,-0.8390553695547219,-0.8408457835266916,-0.6786174977935718,-0.7477059255940012,-0.8323805584781946,0
433,-0.6744054907036,-0.6794143884119015,-0.6724325818723396,-0.6282102268765888,-0.6873032461195638,-0.652168441622691,0
434,-0.35549269420085333,-0.3729456486962271,-0.3954215022491727,-0.4595511564922481,-0.36441331577225133,-0.40979206006228924,0
435,-0.041392853621401285,-0.22096915058739802,-0.1265380249279454,-0.13940764900808456,-0.10514213801984104,-0.13906350054606847,0
436,0.06416728920063713,0.22763879580238283,0.13624754503675057,0.16205919934177532,0.16770804494650052,0.13475132199071443,0
437,0.23236070806450165,0.21455673329437408,0.20939802124701684,0.29116162957225755,0.27555445588338096,0.3783206365554874,0
438,0.359536925895589,0.30718270063750786,0.3820432029424712,0.30935218736941966,0.2245844518930291,0.22874977096886007,0
439,0.3037643337870163,0.16991580714939974,0.2278168329139137,0.23358920569307817,0.33050498855130966,0.3110565935809464,0
440,0.10753099718924322,0.1279845245644674,0.1267858515391265,0.21954859334546672,0.1544600207357504,0.11727982221615685,0
441,0.05791761389184383,0.030968611788857806,0.1921824743301875,0.0009387572626862253,0.05219108870763615,0.1419499020938452,0
442,-0.0051122586580903615,0.07034465662437388,-0.09462191109962162,-0.09531535756403743,-0.06616454877215118,-0.052886973287899125,0
443,-0.008360792963423111,-0.13232253984603,-0.13690007304863944,-0.07854588074892077,-0.13926654278360243,-0.13482674175855505,0
444,-0.11135662097341163,-0.01273387639278524,-0.13187226911312389,-0.10067426572433709,-0.03694399673153226,-0.17154044205428676,0
445,-0.06950957545738909,-0.09134376586314226,-0.0848218014734857,-0.03264365568869047,-0.02563564937717,-0.07512360023660107,0
446,0.01996510862494101,-0.08132255085662042,-0.07640499175908966,-0.06257554537640354,-0.23251394038623874,-0.09739528940690492,0
447,-0.011514622990774404,-0.07142659609965105,-0.01989908188615274,0.0063708843346752045,0.10636290849593409,0.10274066346554958,0
448,-0.005081966859876434,0.04996054934163624,-0.001717808553749426,0.019781640370093466,0.019947781852289074,0.05217561232504338,0
449,0.005767335208999257,-0.03561296273669064,0.012903639148042625,0.05793302361430734,0.03092707265727694,0.06483433690730289,0
450,0.07062694310761475,-0.0017849277601552395,0.026411630462255115,0.06460317004488757,0.022256666712233107,0.0013316544452779688,0
451,0.08271354314054105,0.021991988103728547,0.07963341930074863,0.06607771088678822,0.029122206595579632,0.0030207643479169682,0
452,0.06455256453416698,-0.046392158170315015,-0.002829724489739961,-0.021241142621560412,0.022941416545349286,-0.03417756832949758,0
453,-0.012418793406098421,0.05524023560611221,0.03286739106992226,0.01108112493451197,-0.005555836859951246,0.0282932282323169,0
454,0.060137400672115156,-0.08993364926744873,-0.03703145698585669,-0.04269171354859695,-0.022737926133808043,0.019367105976910486,0
455,-0.0006132766502429995,-0.05753308416956993,0.029209962037048773,0.029176646574125102,0.015905812296064664,0.024214283553021458,0
456,-0.09970249813509964,-0.014676427804967914,0.022668976413778366,0.09879320975984181,0.04208776950993753,-0.03997478644606059,0
457,-0.038430375714900294,-0.04694375155824434,-0.00846683499383577,-0.032362010585211855,-0.09952580097705166,0.075655409788497,0
458,-0.008714511964950206,-0.02032419394261221,-0.10326226630272985,-0.07952872968978958,0.026510303841739698,-0.041576994728158616,0
459,0.03719853180417713,-0.03225634583131168,-0.06498607663182054,0.023141932554642204,-0.040622133794974584,0.0005385739151677044,0
460,-0.07889464000803861,0.06177438883527572,0.01586193840217444,0.10710705797624503,0.0004928505196156317,-0.02309448873436297,0
461,0.009241122033965264,-0.058857304829258744,0.018427055344022173,-0.04867357644318505,-0.009178656048605186,-0.02727075470813792,0
462,-0.03699306208228483,0.007766036823372718,0.011806860731547297,0.055652246424968015,0.018298885453143374,-0.013024324777943299,0
463,0.0071031093883665046,-0.021042922206111692,-0.025915081429106722,0.00939693770873236,0.017226056840859146,-0.06818259709747974,0
464,0.03745987000424798,0.0028698213432464957,-0.02409222485332452,-0.04440296515045727,-0.06434102080402976,-0.07877446831678801,0
465,0.0025544976854473198,-0.1074586814412147,-0.048184406014509025,0.018219045778178858,0.04668395728701035,0.08058013183132469,0
466,0.06618257085045529,-0.007028003636616238,0.04993323113577047,-0.007347477851498929,-0.08643626100234077,0.05156078898605613,0
467,-0.015005765128167243,-0.01193287122698039,-0.028591081149334036,-0.0024880344335534046,-0.10703527255305702,0.006088065154443563,0
468,-0.02064687415654665,-0.02384583004389892,0.07142526408684213,-0.03004036368598407,-0.05313127364927999,0.03930908138470362,0
469,0.010562188606753852,-0.008822729525956037,-0.05783876601382153,-0.08129258547023774,0.03669256120570717,-0.07163446514768,0
470,-0.05582203601123352,-0.01692863207605327,0.04115526656274013,-0.07246640305923598,-0.06557088587590024,-0.013972931519226899,0
471,-0.03577021733227129,-0.08720909279911881,0.008329726362711221,0.005977294577169912,0.005108312448987035,-0.014745813493481865,0
472,0.008864507648428355,0.009210543132983818,0.017594746771920723,0.04637780094408869,0.10692186177689758,-0.006008166989590158,0
473,0.04275881010593348,-0.03870081814732872,-0.10915997795061666,0.03179076699122489,-0.11797895187471107,-0.006779251558895747,0
474,-0.05576345694907147,0.03688273005474059,-0.045587660269897905,0.02492779419470496,0.12280648559502459,0.0016050616302676957,0
475,-0.007468230634742307,-0.0034374550744756373,0.015179563060342374,0.035282949039683424,-0.02453445387880768,-0.01270321094838275,0
476,0.085699047971301,0.02981651011757844,-0.015193203679045671,-0.07150388775891534,0.0875867300965262,0.08092999058062605,0
477,-0.07459155452347824,-0.05422336066437272,0.03395359166242838,-0.06565534087202696,0.00016742922556028348,-0.012347567969199055,0
478,0.029200446269878853,0.0036159479753681586,-0.09907522876356512,0.017275950131150783,-0.06373920199537364,0.04390162292949681,0
479,-0.004047586258115548,0.028775710182393634,-0.03216866390057463,-0.08567030924381004,0.011570048488188909,-0.06419736808759753,0
480,0.008651262127814958,0.07398804516002404,0.0646008336912149,0.08134112674781754,0.04947209345547091,0.030317047076643195,0
481,0.03707275906153422,-0.00136059955621117,0.0525017131504975,0.00839248290179709,-0.02728092945428026,0.02343198206360103,0
482,0.035274878198859466,0.1631271959512799,-0.05312919608780856,0.03980447179907304,-0.08488650031490061,-0.08257968343069734,0
483,0.04393727008734193,0.037351781504872776,0.02577399671152809,-0.012765313739432928,-0.04059622647936348,0.024470292224578784,0
484,0.039766990237862926,0.007633445711812028,0.07967387543027335,0.026340161768588333,0.00030622943021293866,0.05307528945401286,0
485,-0.00015333088278155464,-0.011024677750918066,0.0025253407685530446,0.09501467624986655,0.0338954667464012,-0.030528911785662593,0
486,-0.09157856617508923,-0.10666799297807693,0.03210642620574749,-0.02011840395092496,0.04801580190065336,0.06107325091209523,0
487,-0.010724648003056211,0.0005810497343469187,0.018151171110366356,-0.0052677659474722775,0.01392203781403569,-0.1993699562422261,0
488,0.02261520110037368,0.026307727697338107,0.023790812644905207,0.010868498239109861,0.013666176543530908,0.07793501072546835,0
489,-0.008291399013154527,-0.03440809497541384,-0.10246486807424589,0.012642611205986717,0.017820281727016773,-0.062341765266960725,0
490,0.012521155246686243,0.04198335431365964,0.11075531091650871,-0.004774633740186161,-0.028079606624516005,-0.09612458278752492,0
491,-0.07468405036274088,0.03861508266307259,0.0797204682378178,-0.06473079032195703,-0.11125991937936461,-0.031016647731513785,0
492,-0.1072707128611379,-0.04924726149264347,-0.05483651774146466,0.005231609589040396,0.031040561414123733,0.05834181130738478,0
493,-0.0318079021593562,-0.06438789850507624,0.032689511602787054,-0.06088247896875046,-0.05666147757999619,-0.00848000446397929,0
494,-0.014865495699650155,-0.1596535504287719,-0.041427035143639865,-0.027961759957429236,0.03444299276945213,0.02350149857081865,0
495,0.009859734676146198,0.00872700965548763,-0.05434863872612331,0.016252557913330145,0.04696499976486208,0.04727441332065474,0
496,-0.00652525260481911,-0.026023399041293385,-0.017695050025660682,0.11286927434214904,-0.05006949987882471,-0.123502863157505,0
497,-0.08276693938710177,0.08479008062090193,0.07939690041280173,0.015858206328869494,-0.06014182145953272,0.034338988405562494,0
498,0.0782300476817828,-0.019765160588119664,0.001645806630642556,0.06511132397468088,-0.007145800434857829,-0.06077670574116425,0
499,0.017883344531282583,0.025944681041725984,0.02924698609013572,0.0385684672309457,0.10578570628986851,-0.007197701566358895,0
500,0.10325672357500917,0.07583667806910883,0.1461337167290212,0.047761356796176456,0.08198250811903068,0.07961182220137124,1
501,0.7068594930969512,0.2886050321191179,0.24513812832223952,0.20667668156059538,0.23568928283284285,0.2305301281592235,1
502,1.9256952995676317,0.45063784999716644,0.547696528368444,0.4801445630100843,0.39110767745086095,0.5552071785103356,1
503,3.736240693844364,1.0397928890528385,0.9313544172145751,0.9241407080419053,0.8672163768221288,0.8156100093483699,1
504,5.960604540501431,1.4863627789343024,1.4410639187330543,1.464402179787875,1.4653717343434756,1.5245451925367688,1
505,7.061022614226534,2.206888205927566,2.1860495840397958,2.3171106852310595,2.3204865751226,2.3021525675860315,1
506,5.929465356108331,3.261099887427347,3.3120287586856514,3.3305295315641783,3.3685039820094405,3.2797598833532366,1
507,2.87032610616082,4.389756873249772,4.364532885712143,4.435316672554491,4.480927904429309,4.392704339234214,1
508,-0.7343967241833407,5.498026752161112,5.410033291636309,5.3080809527415,5.3932427161383965,5.340897001515076,1
509,-2.904566838491945,6.318995276160724,6.246742489226393,6.28771560088438,6.275828045261451,6.294490453717224,1
510,6.800613437267523,6.863108120095632,6.788805213318172,6.835930071212951,6.862989822470486,6.90994490358117,0
511,7.045454037353577,6.979707546692308,7.01834815288788,6.880531646010397,6.903654647042151,6.90956651733824,0
512,6.351636270184099,6.387751611602037,6.402252743508229,6.419369113983979,6.332814806752664,6.482836819023447,0
513,5.20331886237317,5.219439797114057,5.116552589599423,5.239949193279987,5.287700525532413,5.253143315462719,0
514,3.728698061495867,3.7391420615516178,3.724192207453328,3.657361937630379,3.8231813161247894,3.7471139941666047,0
515,1.9405992224258561,2.0374350707297806,1.9024995940854574,2.0420203802572674,1.9705944740933634,1.9026154389498475,0
516,0.17126638116554027,0.05256177878978574,0.1688682040224965,0.1426019337432496,0.07495973619891186,0.06865649710134594,0
517,-1.5053185779415392,-1.5078603795013663,-1.5132593693858598,-1.498859081503701,-1.4800270352716467,-1.4649563034114488,0
518,-2.591087280450566,-2.589049564019114,-2.641939950597855,-2.703545948697835,-2.623330953026857,-2.6587274789713766,0
519,-3.0337879072275764,-3.09466513407906,-3.0447177087701647,-2.9583453745463886,-3.03817661996473,-3.031124537570041,0
520,-2.8072870697223125,-2.7918258480207956,-2.782750528901684,-2.8118300747100715,-2.7254493510760063,-2.8201954553113766,0
521,-2.1754289271643312,-2.0656942452494493,-2.125774057975839,-2.10833648230161,-2.1702185358822335,-2.200739351169949,0
522,-1.114996571170001,-1.2492982420658156,-1.0836174195425627,-1.1452957803444543,-1.1391667688712253,-1.2088667080810775,0
523,-0.16137325737880515,-0.09933067060209774,-0.10804455766793913,-0.09253467571937006,-0.05430067327510603,-0.1257376491438888,0
524,0.8743313328978379,0.8623806608429826,0.9321692164645758,0.8878137253537465,0.8658134788509626,0.9286485736344369,0
525,1.5468918403244258,1.4655306578599683,1.3675024766750594,1.5004878567791025,1.4023102016106395,1.4956034243651737,0
526,1.5548828637317578,1.6035029941329881,1.5969779689230925,1.7344609456030269,1.567178156763177,1.59210306621704,0
527,1.3873636507538685,1.3771124081088442,1.4101298671047615,1.2671849900726357,1.3187605645494778,1.2989053224467548,0
528,0.9545236728525269,0.9127171946990317,0.8504446161804122,0.8714945425336652,0.9093835801624146,0.9117957248979518,0
529,0.2666895109289143,0.32581782637715523,0.2033057394804157,0.3623196389203676,0.21396347064769144,0.27504329927495935,0
530,-0.3233623587783265,-0.2933321165485429,-0.2573001098416695,-0.29577550676102426,-0.21180853984777018,-0.18649839022782633,0
531,-0.6708208211950943,-0.678970667724373,-0.6454034212177816,-0.5918713978140434,-0.6215066094063703,-0.6340862679266244,0
532,-0.8114428054727484,-0.708846831826476,-0.7567403292012016,-0.7348516196294843,-0.7865818406107453,-0.8196662238460652,0
533,-0.719941543195559,-0.7216930920836494,-0.7583464543480262,-0.7968968397382303,-0.7934011132371303,-0.7213937282273195,0
534,-0.4914971638462312,-0.42029609880854824,-0.44641102305773195,-0.4963379181891928,-0.38119926440833535,-0.5136080706872713,0
535,-0.12316576361800519,-0.1451777931989845,-0.21199352154546552,-0.12558300160050834,-0.09938998611950532,-0.21784894961111517,0
536,0.08533762240595685,0.022519989394035864,0.15551012215071544,0.028594994710446006,0.019224379149950725,0.07531855841133166,0
537,0.3126152387673733,0.18077850948328802,0.3233068610759546,0.26688965653837693,0.1625491079160995,0.2267347323088596,0
538,0.3949872510810852,0.42258316333060725,0.324876153870788,0.29854200356264377,0.38380694275719335,0.4080131021129124,0
539,0.3336279738620269,0.3180458537910196,0.30903437693741076,0.3400943503316391,0.3643932307246623,0.2291407297277383,0
540,0.12021541540329998,0.1695264123110439,0.10069758741499836,0.2078146010904544,0.2367669102184437,0.1032724986158625,0
541,0.03287997620171464,0.08218377979139535,0.08847666449544236,0.047749265886671305,0.08917250709503804,0.05240412970259651,0
542,-0.028537040740555637,-0.07335904645035049,0.033051782188405036,-0.06586955053814736,0.03859500397017936,0.03415018406126557,0
543,-0.10841805885505504,-0.031207037496308265,-0.0820631806454758,-0.17857042424334646,-0.023986087665595457,-0.14769600894722565,0
544,-0.09759909601108206,-0.08778200442345756,-0.09514695193092751,-0.11113787537379775,-0.09898842420410081,-0.1266090662136009,0
545,-0.10365203335514234,-0.025626526230535407,-0.04941843945387682,-0.13023501701424328,-0.07319000696959745,-0.11736417560438905,0
546,0.01017483235170484,-0.035528230745378836,-0.13564075150303062,-0.07926986828295375,-0.06074295884882805,-0.03440136007499732,0
547,-0.015404623295211006,-0.14430670047668653,-0.08956734628617499,-0.025199953891593112,0.017141346680715736,-0.10879398839045598,0
548,0.04269043940244423,0.14879600260387502,0.004289818920472168,-0.03302846911171885,0.046070322795262145,-0.02875917689305213,0
549,-0.004011750156090295,-0.028864113586190385,0.03965383400417742,-0.02181577233174596,-0.04820733054284455,0.04787446054716495,0
550,0.013990110590022028,-0.036051956538256796,0.010068243159193687,0.024537483602293665,0.05986321527161908,-0.004626509919734463,0
551,0.01175427864067119,0.048336569275088434,0.09609894754994794,-0.016081728319592904,0.019966500812943662,0.0519068895773228,0
552,0.054276673969614005,-0.018983710561030084,0.010821488345485047,-0.04147304512145205,0.004902528145941316,-0.031108117069676568,0
553,-0.02845352115193215,-0.043881262361821965,0.03862984155056676,0.008325617600692456,0.057771273009689976,0.06582421585736369,0
554,0.02400838063565165,0.02854016350099931,0.026303628370693333,-0.08204275149554373,0.0278700536980041,-0.056235827904648726,0
555,-0.02610838533243235,-0.03412729708347345,-0.056772778316820253,-0.10283765816659636,0.04974699957081116,0.02209821139462863,0
556,-0.07252313341037013,0.002199609900102815,-0.016799723108775495,-0.04032488554888085,-0.01837926843582193,-0.022422551547594493,0
557,0.015805803447527442,0.01411332723494484,-0.02232125308351568,-0.007145143084044318,0.05517673405793705,0.0199835342718582,0
558,0.007654505182203047,0.037299386113772745,-0.12169017080057835,0.10107495999404134,-0.007987022864712218,0.06680531407899773,0
559,0.054285265388544,-0.029150891157576696,-0.01604876824459367,0.018394033044618858,0.05511818827600977,0.02526441516310783,0
560,-0.03392833753910173,-0.02673315325117114,-0.020022650638418907,-0.10504252707300339,-0.07714852467779168,-0.024518614586980993,0
561,-0.04548996218566121,0.021173392650985418,-0.06328048447308281,-0.060915939715337576,-0.019288051547935517,0.004891749420519545,0
562,-0.046795043369721234,-0.04714797703290409,-0.03182420941547311,0.07539422209314801,-0.016378810340836884,0.003208217741146614,0
563,0.003529121773886303,-0.05353691786860481,-0.07776406642111325,-0.046824908268174106,0.00040081665694871875,0.029635173068192466,0
564,0.01811440680659455,0.012263911620411207,-0.03613266370562587,-0.021436400311705614,0.040673601902546486,-0.02308064487460196,0
565,-0.01987406152121568,0.05787452223967579,0.008171171994742458,0.07040074471508061,-0.02973165165032205,-0.033452631911709295,0
566,0.005701239351132439,-0.04190929307894968,-0.0031130151222250914,-0.04801887477635311,-0.05709512522857984,-0.08514721789951465,0
567,0.09698679388108813,-0.020407294208605445,0.029108776465646833,0.02376080937447388,-0.023234436544975905,-0.05394346289517314,0
568,0.04766373946379716,0.02089252514913962,0.06983986182282256,-0.02845861258786439,0.017354476155667074,-0.002460948740755742,0
569,0.017367894589639672,-0.05877007611077801,-0.0022407237353713463,0.006471782034235388,0.015085396645647472,-0.024979080601485473,0
570,-0.015391203244640194,-0.06548451268753921,-0.036456985945876375,0.0478667826783998,-0.0696934848719998,0.011306272691209507,0
571,0.023005648503161318,-0.009460810383392252,0.03893824734915979,-0.04504478342802322,-0.028911008718339442,0.010071590542842734,0
572,0.05634113347902548,0.019877892687707604,0.039105849400635107,0.03385910584858406,0.016063793154814814,0.05753760303480166,0
573,0.09006073805316102,0.05993901733362641,-0.03260416042863302,-0.028990118250248578,0.016408759148184543,-0.007107608736963966,0
574,0.014213579383243176,-0.01867578465701722,0.014936080945207372,-0.03253710839243457,0.03295158176421043,-0.03805376201836986,0
575,-0.059625408137910056,-0.05170415237005939,0.001540198131207133,0.06279204042698647,0.012221407915706571,-0.0437181465540146,0
576,0.018876176574638567,0.007370173303737547,-0.016311858273664225,0.09202652798066005,0.014302803115682937,0.022709129727601477,0
577,-0.012024881604772652,-0.0744770566207986,-0.007191452687088541,0.0037409771730378856,0.0409308347914221,-0.062086344755580745,0
578,0.03969525586567177,0.04807956555234143,-0.048967446515582075,0.03816774820345488,-0.050396714692290505,0.027502945452631326,0
579,0.0011092858067949264,-0.054446428186024666,0.05677447566977426,0.02824110569336233,-0.022635185745720723,-0.03580681932154622,0
580,0.020255127913270506,0.08255219111557516,0.02885487999431915,0.02726621308476619,0.06470876903063615,-0.007753038467821685,0
581,0.007668943730171141,0.03311125890233435,-0.022355495498425946,-0.06444440040844429,-0.012944126663509017,-0.061918682919579686,0
582,0.048861485357045244,-0.06797627739439716,0.030662122381623063,-0.07015942071604413,0.022366273984690804,-0.0885714667852749,0
583,-0.0022528650663270976,-0.1425283954453041,-0.005485640676481202,0.03824765227060464,0.04085556171413959,0.012708655961077982,0
584,-0.020494996489255762,0.03213978304074615,0.029410897332157397,-0.008745957588275233,-0.06783802189786983,0.06520969929869826,0
585,-0.03756423287602616,0.0809812629820226,0.08464624557763667,0.005309386772442103,0.03051026378323755,0.028559606451237184,0
586,0.019766565616221126,0.01692387203173249,-0.026441249761888833,-0.019297663812170397,0.04391428963826386,0.026756466840837385,0
587,-0.06742974826663965,-0.10694105394442784,0.023156692160995758,-0.06706268243984262,0.012950080153980624,-0.0015207878802987406,0
588,0.04195205429510988,0.05276915977184548,0.002051510309659405,-0.023957593688801557,0.01901811925673184,-0.12334472712036597,0
589,0.039384266805990484,-0.0011079890695689988,0.024425493440455415,0.006215678431099673,-0.08529748605885999,-0.011636570324754972,0
590,0.09802633436299472,-0.05113007956704369,-0.0286250328616206,0.003598239265367976,-0.035257567774109766,8.328618012532022e-05,0
591,0.01250367292025904,-0.023246718523619432,-0.07236869981068159,0.02994022972871741,0.04512668260484725,-0.04688214781177784,0
592,0.07077841063612246,-0.058686006165969994,-0.024238432752242224,0.012873423950546038,-0.013544815116725834,-0.032737093074471944,0
593,0.06882130915053279,0.032771922615754526,-0.03093728287424089,-0.0152451698703581,0.018321939876431412,-0.009869496445424739,0
594,-0.03753106674680999,0.00185274323058362,0.06251771869022821,0.0018159229659895125,-0.026024533413829938,0.08746913189018721,0
595,-0.07643481278605219,-0.026339709898813384,0.002724827001612311,-0.03275345357752,-0.042577300173331493,0.016465173823701718,0
596,0.018187902086439892,-0.09591841455006292,-0.027811837970966084,0.017084927143832362,-0.030445756177724846,-0.014642637271249488,0
597,0.013027690618261607,0.0014783481136017513,-0.045441699237029676,-0.028428236715754528,-0.06973331956524659,-0.08767809516526363,0
598,-0.026999290735207952,0.01638083265205574,-0.038561874441711025,0.05016728820796908,-0.005662361615169378,-0.027685331341388408,0
599,-0.05099632676668208,-0.0026308899038654417,0.08807384253344111,0.009931894462826217,-0.010912387402813285,0.003948189457179086,0
600,0.18726554787413924,0.09521876979210583,0.044025661602034485,-0.043377436289571386,0.09642611870870466,-0.016858064548887372,0
601,0.09012679684137102,0.2461601755446463,0.24783129343337007,0.215931753788808,0.20656436655482288,0.16791004736586163,0
602,0.34325597004672126,0.37019774865037197,0.39798339486909373,0.3777764690550131,0.3496405920627069,0.46465515832071863,0
603,0.8339414706746016,0.6466185618727971,0.8051252547310911,0.8490857320539608,0.8514875287024759,0.7371770995788058,0
604,1.2662026038432506,1.3564075753706684,1.3545457639298102,1.3241089002371296,1.3066040271633486,1.3106798383161709,0
605,2.0205245641971272,2.08334891184849,2.10043710726218,2.1563069909444783,2.0852798291308576,2.1772889289493618,0
606,3.147877952763239,3.0076381278417816,3.0765034222034657,3.0731935710941936,2.915859077605614,3.020067810717286,0
607,4.178655900732217,4.071329281166655,4.085106051857292,4.148368896163877,4.126238913400632,4.233903334954246,0
608,5.14387927346401,5.273155273734791,5.189103901662334,5.221778868517668,5.18192890880606,5.22096555076619,0
609,6.0398368642855615,6.148743281089467,6.096418697242595,6.154054283473615,6.011365936955796,6.235340994786208,0
610,6.78942011540889,6.6931229206812315,6.775574547968769,6.7611457087039275,6.769600075279043,6.727057870779416,0
611,6.907919489950713,7.0247396272825045,6.980378929929807,7.0258946747245075,6.909405046194947,6.967052443989759,0
612,6.583424280607971,6.519716057801434,6.5985070249114335,6.620384516604677,6.627001077236909,6.563915635251808,0
613,5.544015579141531,5.631977103377466,5.677765570048456,5.6121245102687265,5.6926522827104264,5.635297878623957,0
614,4.128944947582025,4.172020712988326,4.176063710755098,4.108165287645906,4.129532456296304,4.079211584842964,0
615,2.3501290191205073,2.2621563374633635,2.44747627642054,2.3780483799420185,2.244679457525588,2.3963114250035566,0
616,0.4800484261061684,0.5331943502205985,0.5197416554139691,0.5487290967083638,0.5449328872918675,0.6208798023467337,0
617,-1.2159734313979316,-1.071666915166564,-1.2032852043932865,-1.1884659067801067,-1.1667242967663958,-1.2217783505892839,0
618,-2.3509386423977405,-2.4524876298352645,-2.452298697632916,-2.3900275391008368,-2.4320817743537266,-2.413012870259399,0
619,-3.0520647359550486,-2.9886054597289133,-3.0440894292964824,-2.914026046894378,-2.9955283311536953,-2.9727252638928063,0
620,-2.89381687976526,-2.913593508495641,-2.853599680538288,-3.0215809443613457,-2.945540129509914,-2.947837396286288,0
621,-2.3118665933269766,-2.352207398116064,-2.315113471938776,-2.3319552061562896,-2.331570477774557,-2.300440898810102,0
622,-1.499963262508822,-1.450529630411371,-1.3804584067369718,-1.4050469355067905,-1.4000352306654358,-1.4461858599321475,0
623,-0.36315799930529674,-0.3333460883201863,-0.3099804835499522,-0.3001892692069564,-0.33693527765271536,-0.2561523992942829,0
624,0.7585462332816898,0.7062205237489465,0.6495049345078868,0.6829032093899866,0.7871796204180488,0.7418494192597611,0
625,1.3552954877228622,1.3006100342930693,1.4486767336590445,1.2702494052813316,1.4314523925473297,1.3707508824990415,0
626,1.574021710667346,1.5397796483907729,1.5923281184877303,1.5925878546406738,1.6376211357439734,1.565688612065937,0
627,1.431282414151822,1.4093566044477042,1.3906517415861925,1.4409868550176481,1.4093664747374632,1.387112179564593,0
628,1.0010500396234845,0.9646039002639129,1.0808442518095396,1.0964472128080132,0.9957739249832305,0.9705331519442698,0
629,0.4186487729472478,0.4208621421988782,0.4441655005782717,0.4425915803002873,0.44540266456533806,0.39473002082563025,0
630,-0.1816300406091653,-0.10598827322225218,-0.07847452187746395,-0.0963132957990963,-0.1213823916209966,-0.24369780996324653,0
631,-0.5230187303166174,-0.5951324638513321,-0.6334268474710442,-0.49125208803952863,-0.5273571395337598,-0.49814496711666895,0
632,-0.7940018694543426,-0.8095257006025782,-0.7831092852722055,-0.7872137348951005,-0.8402067159587238,-0.8147220313858374,0
633,-0.6825538887689515,-0.7320188426714392,-0.7271727929513057,-0.678983701194217,-0.8780624558835307,-0.6805431071003967,0
634,-0.5103417087540295,-0.48961243740383076,-0.5391336913574112,-0.4748505613220372,-0.4621397302499861,-0.44330929261777263,0
635,-0.20651737766460473,-0.10909007874758622,-0.1945698244287768,-0.169108233236882,-0.2582904745953713,-0.22172416985478494,0
636,0.1359427696126132,0.021760933458516554,0.05797143665860619,-0.00857514535393515,0.07410938683058081,-0.07398088446476249,0
637,0.15880554693682597,0.20088024158960419,0.24811295651956633,0.2860199473170699,0.21157759488153471,0.28568057166770666,0
638,0.37562754458116004,0.3510970583487126,0.35292190995365114,0.2562190770436217,0.3048927796819041,0.27886363086952415,0
639,0.3199805891759287,0.2515079912134131,0.30707466347815615,0.36612953366647805,0.3757808322397168,0.28925551505333386,0
640,0.24350041850301826,0.17267084415479847,0.2604293359967598,0.2184349516388568,0.19036270790035387,0.20769138174467514,0
641,0.16127671430254475,0.11838865627818608,0.09403223846233663,0.12571851303779402,0.11528399030845501,0.07808958814400654,0
642,0.01670620748485183,0.036887214525822706,-0.049363765155602896,-0.01998045122546029,-0.09342713606632436,-0.07456380691704367,0
643,-0.10352913458516082,-0.10219254011140996,-0.04682992954680231,-0.05813709016267396,-0.14432357820159336,-0.03956775279575484,0
644,-0.11929445326701996,-0.025845495664316404,-0.15022230081691804,-0.036968102147489704,-0.07460203595309549,-0.1176127008713053,0
645,-0.07046691064239446,-0.1476071880221889,-0.03202304549135539,-0.14179551151757508,-0.1009649460822306,-0.09384272391257802,0
646,0.002683210475957168,-0.15205428441061686,-0.022426475397666484,-0.029223175473106655,-0.010455688482293501,-0.08969725248277313,0
647,-0.012217360434396706,-0.03213878103866143,0.017870348563194048,-0.21843047420579612,-0.07787130970717504,-0.14992722874052494,0
648,0.08147503428264695,0.03828879364565875,0.03803389713630882,0.05560042289339223,0.04690477815759393,0.04586575274942357,0
649,0.10683216866974522,0.03832899726556996,-0.028958706269155105,-0.00134563680482723,0.06014302526008436,-0.03308365019086171,0
650,-0.036412525533034965,0.06504481791025721,0.021291018886343424,0.1334065416636807,-0.03454575311185326,0.012796587551875953,0
651,-0.06560672158313596,-0.003492834420405655,0.042089017691146466,0.04053955337544363,-0.024246904012122934,0.01581445743699486,0
652,-0.008340878755506256,-0.020283716980754152,0.060866673773586975,-0.0736491148077997,-0.009372193524807169,-0.025770514339112517,0
653,0.012629766221009465,0.06629487314805041,0.08746493411450142,0.01937458053521065,0.005950278428062478,0.09570892611989136,0
654,0.009441848654687685,-0.009742494771591583,0.00910604959825294,0.004572883191289923,0.0560931718389817,0.08193114574569567,0
655,-0.05574139617886782,-0.025384352746506023,-0.0036577220905873323,-0.02039295644245475,-0.05237009432564826,-0.03196516301882953,0
656,-0.014265739553142996,-0.018376299066090257,0.012125631328153957,-0.019605341090435456,0.010736524432213401,-0.09645563623512701,0
657,-0.04720478586675203,-0.048605461941769595,0.05870084304598281,-0.019657773670976743,-0.015864771768446955,-0.011883407356247034,0
658,0.01974684792217872,0.01182587181877381,0.0010808112397644473,-0.10192529225647766,-0.017814253286700752,-0.0712105792847584,0
659,-0.05329993972482162,0.03987926253492596,0.011327204160657845,0.053308296205299484,-0.0015393654862337852,-0.052267228322926414,0
660,-0.06235751613372639,-0.12381423845577756,0.0163045878975559,-0.05584968835865058,0.007953446965807121,-0.0214591405271803,0
661,-0.01676955463329572,0.0064541308969483365,0.05634597570326588,-0.09295483033786872,-0.0201445645635024,0.0020258186059151995,0
662,-0.033013414800453694,-0.09923580157536845,-0.021003162970810788,0.026163977877117866,-0.04000910007781422,-0.003628896879991044,0
663,0.03323189507282901,-0.028535381189943743,-0.010548620197602405,-0.11244596043101059,-0.06279156995379673,-0.10619498667640236,0
664,-0.008489405359138521,-0.05084546329694301,0.008064024180912557,0.05987987452702361,0.02584887671380201,0.06451185387704216,0
665,0.017926640009133504,-0.09868825570461795,0.05900495782940662,-0.02439100736154071,-0.006485584247659118,0.00233956898335053,0
666,0.06463434585367818,0.030011865169029307,0.003668595000079487,-0.047998999060368384,-0.07957370250248018,-0.054403905489047326,0
667,0.010193141350323343,-0.06842304399414541,0.009524051229893346,-0.027007692444371123,0.09023152333212288,-0.09517767228080036,0
668,-0.024008033752076656,0.025722297194484267,-0.031194958571923635,-0.034061074211572395,-0.08984922978024311,-0.013605307539145397,0
669,-0.0052543311323480155,-0.001832922262957747,0.065077749264854,-0.0387649042542621,-0.054717518416755796,0.012667266640047223,0
670,0.003960927332499906,0.06947236087490868,-0.03047911132683023,-0.0016904703153394055,0.03803815590935476,-0.06171928445747305,0
671,-0.02156793320436587,-0.048842452179141335,-0.028949905663230795,-0.07515905837569019,0.009434762216872733,-0.05220843090239594,0
672,0.055368738857238864,-0.07682723387400933,-0.016440892446245414,-0.02744105936021495,0.02032991939924515,-0.05519517801662564,0
673,0.03502897655174541,-0.0014115549516599674,0.010562324820478456,-0.0441425029187726,-0.03639764801034166,-0.031033020000294523,0
674,0.05281782216542893,0.03023431310341277,-0.022390624805081184,0.08338042086188002,-0.05707519082882984,-0.01182380980343816,0
675,-0.0026812213511206526,-0.0024709572337913233,-0.06973898094346828,-0.05981896244019675,-0.06858075219837498,-0.03788560750662878,0
676,0.05512529769503024,-0.030592972301468832,-0.057000468738244145,0.0022834490628954587,-0.03486947699987198,-0.055441828441107795,0
677,-0.024246226281504264,-0.01181677841454259,0.031039427362124325,0.03516677005130366,-0.09999470574191618,0.007332608802522241,0
678,0.060348467348781965,0.029546122763966384,0.006288339692091761,-0.00431495717039703,-0.018314825665209106,-0.07852803399133657,0
679,-0.03728605586270205,0.03136824459242116,-0.06344449570500205,-0.03715150234151498,0.023399206287510094,0.024754878104416154,0
680,-0.034565315200170234,0.07399044462385515,-0.002962908985185963,-0.0781486229053187,-0.11306956219672035,0.07599526790268492,0
681,-0.0891710519178698,-0.03164588175217219,0.060243123113876494,-0.03591239004132342,0.07570145516828934,-0.01917136128309662,0
682,-0.02234470494186914,-0.08758179007010757,0.03285798594252662,0.030403995134555294,-0.06466408218186269,0.03937873550214097,0
683,0.0003866185074445568,0.04925993988827039,0.11664940622663295,-0.014678327397585313,-0.029900504357804534,0.00669390097883907,0
684,0.02816508637818218,-0.13473403609739065,-0.0176966932557954,-0.028313729192319812,0.03139906821217207,0.09452538984457522,0
685,0.07491007744976447,0.01719496675850287,0.006112370811465444,0.000278926657612757,0.04832190345166525,-0.02132663691424475,0
686,-0.08144822330634129,-0.03156522151825801,0.07169776923837394,-0.050282084782786486,-0.07575990743939845,0.021567733435521104,0
687,0.051309314984476814,-0.0001547819236791249,-0.06607715430902422,-0.008419711217410019,0.03996925887216371,-0.13342773055306828,0
688,-0.007505253749908814,0.02279570932370262,0.016233700499162687,-0.08409083098450622,-0.026702971535262503,-0.01826443926014263,0
689,0.013790024839648137,0.09116119582800612,0.020593646965589487,0.0810210968675497,-0.0560517636540737,0.054762151299642334,0
690,0.020411159120012748,-0.03722297339210399,0.050145273960209694,-0.045493962345305096,-0.00916033218932776,-0.05742560796894915,0
691,-0.03660557977524567,0.09241318584412883,0.05666687790784118,0.014843526208914147,-0.09367502132231431,-0.04480276938178674,0
692,-0.024913120734805245,0.03639071937214772,-0.014111147615806894,-0.025882295444977024,0.0413775984979204,-0.05315942170192902,0
693,-0.004617324796579609,-0.01256612976591037,0.02814070452359698,-0.0254175096735214,-0.0436734997484712,0.024178770710473096,0
694,-0.03433996985358401,0.02365129522014387,-0.027790863562625476,0.015122665801692883,0.0317021133977512,-0.0021590087728355976,0
695,-0.08518650667635282,-0.04083119133787076,-0.04178866246245131,-0.007793228861915819,-0.011453960028853538,0.035845366952960984,0
696,0.02522500539248279,0.04012791900139186,-0.09164544980463592,0.0016876162769617294,-0.004846866503349269,0.034505847306075095,0
697,0.06422936060878072,-0.05687882766414889,-0.011362785871062693,0.014849983086787727,0.026975808085791423,-0.02985038405259841,0
698,0.0019415549174166004,0.01794056548592144,-0.07219625419220553,0.08539269054832271,-0.09446290304210891,0.07413160843938145,0
699,0.0515795994843423,0.013239954241112932,0.09697190965454078,0.163438067496886,-0.05676984006390936,-0.007545423203777581,0
700,0.08815068713880161,0.00998702206552271,0.07756378355037738,0.10859629243975844,0.01176360365687304,0.054412505230532565,0
701,0.1579217065913074,0.2790376976258487,0.1479663492138963,0.07645160609504452,0.19285485723795887,0.20276570542894887,0
702,0.33772268998553,0.35884957544159696,0.3407345895371146,0.3910783403250603,0.4186433142803663,0.370770967166552,0
703,0.6777217323657596,0.7057422399809922,0.6102709988672909,0.6298130645499737,0.6717633581960083,0.7077829755634275,0
704,1.178917549404105,1.1457331372230017,1.1803125322008183,1.144691988434963,1.2614685468141753,1.19159516902982,0
705,1.9059680174963065,1.8767688130054314,1.9512065494727302,1.8488033547926634,1.8525885770029515,1.9692737370308568,0
706,2.8576986600407874,2.746499817257755,2.7543196104006387,2.839541507457667,2.79082901967969,2.8288284065188436,0
707,3.837544890370183,3.8170880784169414,3.954363622801754,3.8887669775036144,3.8155241095093624,3.8198900952373234,0
708,5.060799390860318,4.991768809002528,4.942665045701661,4.982211111425278,4.913287449964361,5.004975421627761,0
709,5.95379862510667,5.8345749624176095,5.915141332987506,5.911450540847317,5.971835319122607,5.9336817978284175,0
710,6.5790312520059935,6.5893064511861175,6.683109055030273,6.618074120014961,6.543254426829085,6.629566952864964,0
711,7.044405286479728,6.9956972537826,6.930555144162132,7.029354885274419,7.036088691961773,7.001327508481134,0
712,6.72626771572276,6.7151033641591535,6.692670106729835,6.782529058089695,6.738428558725836,6.736313549176747,0
713,5.895693882986988,5.869630931128453,5.809287388512713,5.876929358240615,5.876238512278457,5.917690860179651,0
714,4.5501473031045,4.470243642017895,4.558778187378376,4.508075675935378,4.531049113752544,4.525084168053115,0
715,2.7483180608876263,2.864949269932731,2.8347348886724046,2.752150601359964,2.809585451011635,2.781042576559896,0
716,0.9838877011962798,0.9606175428555354,0.9881974412124049,0.9943473720413674,0.9684995459157334,0.9380044087577704,0
717,-0.809729516570697,-0.7499761707782607,-0.7330752369710024,-0.7283958077609791,-0.8410966016206013,-0.8567118551942382,0
718,-2.1416841025019147,-2.0679610638182018,-2.0891364272245725,-2.0969263790079755,-2.1739124522008098,-2.218222750359584,0
719,-2.921467770048978,-2.9102582576863654,-2.9059934296688823,-2.8463458999835574,-2.8637944295449578,-2.9221029808094072,0
720,-3.0119042776157343,-3.00235464497384,-2.88235176765021,-2.9930529791744016,-2.9781132435736364,-3.019972872031055,0
721,-2.5629192443891236,-2.542719711947202,-2.5117246147924637,-2.5091851533764276,-2.46315362938829,-2.5555202791092597,0
722,-1.6149917417513107,-1.6664392267829387,-1.569488752631135,-1.633245334366686,-1.6873122353605585,-1.6498591252237453,0
723,-0.502119146222977,-0.641325002910304,-0.6133923123951812,-0.643213506144573,-0.5564496496889642,-0.5367735524909756,0
724,0.5857986218682737,0.5104408451025532,0.49144714905836034,0.5061397122121507,0.5331912042387112,0.42392590423043885,0
725,1.2973393778083584,1.2640954009140966,1.1784092961346195,1.2392555453738199,1.27660617674234,1.2568214473897925,0
726,1.5929970924314647,1.5595781248437657,1.5457226139532578,1.6246828004019422,1.49689849197233,1.504413282846376,0
727,1.5219476690178473,1.4560022430571118,1.5100163312135353,1.5445318885363477,1.496301056067574,1.582237030693266,0
728,1.1547829840252068,1.0778162853083353,1.0888920943161786,1.1779529355300553,1.1028838322183059,1.1119318822362454,0
729,0.6089090235195446,0.6221918891823186,0.5772654967356827,0.5361983214095292,0.514225515249181,0.596986905008102,0
730,-0.018409408770477146,-0.019090391844873173,-0.025805382793600416,0.02439740851307106,0.16797355478887274,0.06786426586291185,0
731,-0.5293546683622581,-0.5030731813322059,-0.5531696370497432,-0.4827373605957208,-0.504102963937661,-0.4915265713733755,0
732,-0.8110856920492118,-0.8382976267825749,-0.8171920829488466,-0.7451554541463946,-0.7334126016715965,-0.7333550436844642,0
733,-0.7639288217003392,-0.7601639343219102,-0.7906319488159229,-0.8077814984832563,-0.7934156427659725,-0.7404367227464845,0
734,-0.5843051142547625,-0.6022419774007343,-0.5966558307092235,-0.5900180162137251,-0.5734161217288705,-0.4686723129008376,0
735,-0.4239158456240341,-0.32791737603215326,-0.3052607805866303,-0.2776682461400787,-0.37402023430034465,-0.35154002261172923,0
736,-0.011248578630228705,-0.03389725257902585,-0.021583366517027233,0.07995569022754928,-0.09722778085838123,-0.0027330643881565836,0
737,0.1618230374466726,0.13916027467256026,0.16794093603290502,0.20400428460902922,0.20150491722723965,0.21572133354462675,0
738,0.3158474829801961,0.20110926112190183,0.41037153143969834,0.3110943949859732,0.22742284899871712,0.1603380427810926,0
739,0.34108870844962913,0.41629426330109776,0.33234949329653063,0.3831895671952051,0.33720804384200714,0.36992482904737156,0
740,0.18079355799669666,0.1942360325403777,0.15718734918457528,0.1614588914612219,0.29759489566252995,0.16964804645195342,0
741,0.14967979388249308,0.05437081894378888,0.08743309519209097,0.0975195506035992,0.08492303226851078,0.05544653031592721,0
742,0.03767702945986197,0.009398872202319254,-0.062091672415636456,-0.046111689197977035,-0.10569798893183997,-0.026050335321573175,0
743,-0.06670989413714053,-0.12341083239110581,-0.10238508870670487,-0.03192921590353894,-0.06867640312196996,-0.10278289001141698,0
744,-0.08624582874063788,-0.102715449780572,-0.14825565152567993,-0.12215706075511713,-0.0408919863935846,-0.08994104424158515,0
745,-0.0775816490201355,-0.09517956460842826,-0.05053337979006252,-0.11507795353912745,-0.06199333314851033,-0.08157743129198695,0
746,-0.14410897773771209,-0.061424603680843744,0.061296583054990375,-0.12932297533107945,-0.09887252173940025,-0.1492254239745961,0
747,-0.016339377587986134,-0.05098523934731579,0.06583042860962897,-0.04330996530176977,0.025261568328628886,-0.024540204100614655,0
748,-0.04353250516981787,-0.024787775322252778,0.016546346686780553,-0.019089126009063675,-0.05182427048522785,0.013927602721769954,0
749,0.12176378375525287,0.04521573340185018,0.03252905008766177,0.03147893239692599,0.047119852907333046,-0.049627551285391064,0
750,0.04081979706467662,0.14235294288905553,-0.023893809281717755,0.008584009116207651,-0.011325963917004057,0.04820547015740989,0
751,-0.05250739539189507,0.07054151899511919,0.10172132529153743,0.07261923815599797,-0.020663285996315686,0.11306173128321649,0
752,0.00033840157704405,0.04855530640459223,-0.021625975240969864,0.013631976350998287,0.014715743676135741,0.010699575067678659,0
753,-0.0029929999951641174,-0.016325768901549794,-0.0035881650133691087,-0.028138222552632014,0.02617571506532006,-0.012997116961985817,0
754,0.01864021541598991,0.017121542290118894,0.006754098420903061,0.01050999650510056,0.048447469753890006,-0.009447986547226042,0
755,-0.09077339879671292,0.03921374133334445,-0.0673636229052369,0.029573936172089827,-0.030117920072182752,0.0012317356288780801,0
756,-0.039971587432530986,-0.01605878266515242,-0.06945928131069139,-0.007476115592712073,-0.012414530594590006,0.002893725501552415,0
757,-0.0022565829463082046,0.014702593067401269,-0.06577074650662161,-0.027266555968936016,-0.021672628421102236,-0.05577134337714894,0
758,-0.01668012258249417,0.051170413776680364,-0.007917955955396296,-0.034564599214758136,-0.07370960618164639,0.01611815587637676,0
759,-0.03281375062893178,0.03401946365917303,-0.0034411712753715093,0.08511822866445683,0.070822579730511,0.05368127280519583,0
760,0.05815441278856771,0.06605728341729716,0.055215441061491205,0.020960350004909475,0.06592743330169726,-0.005417974147652835,0
761,-0.011584747633693514,0.09340067336773444,0.11112913943897348,-0.09406334988147631,0.13305790666701742,-0.06516578842113256,0
762,-0.007620346187490251,-0.058463798005479746,-0.00877424310397547,-0.010295306513142796,-0.050216452398185236,-0.025848302285333965,0
763,-0.048774677978236536,-0.11299971330758563,-0.02128360816838766,-0.019651250399477523,0.0299800763402312,0.006572405637136926,0
764,-0.0003841927081508483,0.007504490050970115,0.01718941358273178,0.0026109850005483887,-0.050465593461394204,-0.012225766910601408,0
765,-0.01439139273102934,0.015584388300502194,0.015933348265248764,-0.034605826605672046,0.04769409185784701,0.008709808085444486,0
766,0.062066944330238225,0.06711532821068812,-0.070342054129897,0.14095844415891257,-0.04424792314034876,0.056468170275404114,0
767,0.005177492568058013,-0.008960470844769636,0.037367544324050504,-0.05728083179158504,0.07151888747425744,0.057611357408404486,0
768,0.03265795164145566,-0.006395601819525371,0.07711426437423553,-0.055145895346893806,-0.010139715825247357,0.041978666873749515,0
769,0.03566988910199207,0.05242922817718977,-0.026114145497580968,-0.007351237111205064,0.001319098556903044,0.07475720812253389,0
770,0.0018298500082450765,0.0342430042014576,0.031168934907735014,0.04640394176365017,0.05678199036204318,0.002820605459965872,0
771,-0.0228303942241295,0.06377268231699484,0.007867267989744861,-0.045145037948474166,-0.037255210606270385,0.005118578879299076,0
772,-0.024074343956894877,0.00947223476713125,0.05908758920258256,-0.03931888829450093,0.10570394656179172,-0.061934891079387724,0
773,-0.050184531118087,0.06731423397300319,-0.04275245991690244,-0.018559290835467923,0.06289857047893528,-0.05457506340703831,0
774,-0.06287783438667274,0.025980232642729317,-0.04391216252136785,0.007085027233119314,-0.025429999116906278,-0.02918607172544831,0
775,0.024286309373476193,0.03862637404303933,0.12504956584455706,-0.029995954220154254,-0.015215731408733005,-0.011536713088456949,0
776,-0.021242645902219248,-0.061768413244480756,-0.06212155407744419,-0.09212739526858986,-0.05848593993944209,-0.007516968111382649,0
777,0.04812764754096275,0.0236685428327399,0.07039582843828546,-0.07720817977281305,-0.006828605173526755,-0.02643244850197169,0
778,-0.038235605807956145,-0.022494685981978433,0.01343999654122588,0.008843241128688485,0.021092373561904094,0.06611267624319897,0
779,-0.07482204730205019,-0.07359552354731123,0.048196548771178765,0.0022172499605987617,0.04560723098963032,-0.027490142485834364,0
780,0.016001422697655227,0.06468547270079443,-0.0163022722706391,0.004288808316937819,-0.028120237691631068,-0.03614519195941864,0
781,0.08410413268293462,-0.03333050390920545,0.07424304410727176,0.05320071083520584,0.03143236020449674,0.07919670831508868,0
782,-0.013785969170421564,-0.06440684582015331,-0.022016939587733778,0.09590190522108936,-0.025627624784590675,0.028932708522045648,0
783,0.013367572059632989,0.0512523965465168,0.003006342895402403,-0.03626543803060856,-0.0004378596851267626,-0.01074886826819652,0
784,0.05413986278372518,-0.0315992384016665,0.04352450893945762,-0.07087398689493588,0.052770752987285015,-0.09384453518547202,0
785,-0.04932621172744063,0.044215105966019096,-0.011607450347386987,-0.1464202013183237,0.03590757056103995,-0.035126585020041234,0
786,0.006100803729935566,0.0019196216307420936,-0.00350209709382743,-0.003986320079798463,-0.00919498074688213,0.07440541296167286,0
787,0.009664872335908885,0.09065764287765948,0.03641353777775094,-0.023233184283772954,0.002834641664524497,0.04187562897138516,0
788,-0.02454355792864636,-0.003179894198058855,0.020416602036655317,-0.0006467201893500297,-0.03854447565604495,0.04855101415112151,0
789,-0.051381758807693904,0.06467927697668413,0.08465172627641877,-0.11350238950936854,0.014281978783333295,0.0016870740808085647,0
790,0.06326114806874743,0.113071500760362,-0.04306077889165668,0.013178701637332525,0.02821998285114188,0.025180793291279892,0
791,0.053333212621169745,-0.048596997369005704,0.06284252379715241,-0.026426165667248782,-0.004224089858885081,0.000950508153603795,0
792,-0.1057008377369624,0.003259380114369089,0.048350260991249325,0.05211110983792712,-0.046255324330894056,-0.01032420991493134,0
793,0.04973450234740134,0.004011017657320971,0.037665096399475094,-0.023864671416255173,-0.07923274331903672,0.01679204538725419,0
794,0.02571241727499899,0.0009285908575686244,0.005805829991331716,0.01633203692415663,-0.0756427703279742,-0.028738141167096692,0
795,-0.10613431933819992,0.03281411317875496,-0.08662488754104004,-0.06756461276384915,-0.06876402563809676,-0.012085423258988516,0
796,-0.08078008445524622,0.04263602380630698,-0.004478859575619285,0.03366352708909385,-0.07174021612869459,0.0196117440468432,0
797,-0.0653814557827776,0.07426448478434364,-0.0409251065118765,-0.00025538027465798726,-0.0016093197022473914,-0.01892516491540505,0
798,-0.027659811733337203,0.021568234022798047,0.04951956747144429,-0.060078858466844534,0.02295223202136678,0.029506262912587754,0
799,0.1099387709189617,-0.0034182788924810997,-0.008122696885179633,0.05019195859521996,-0.055299395339656096,0.05834156685547619,0
800,0.029197980299950698,0.01302915979663902,-0.08736797720550463,0.1432585959502973,0.01346946697703235,-0.029905923839069058,0
801,0.03466674937810203,0.04544449682427033,0.08351919538646121,0.24672419047305907,0.09138280380638811,0.06457209031671104,0
802,0.20152258395992767,0.3247484559503421,0.3301777582794964,0.30531623571518063,0.343740292818246,0.32030785116472044,0
803,0.6193054811030845,0.602603047558505,0.5799043998351681,0.6421612625476079,0.5413930974879679,0.6566277448716722,0
804,1.0264877910367953,1.0750704433702716,1.0569459539441326,1.0497616398624827,1.0343435209788836,1.0710931418164817,0
805,1.7017536888512375,1.7061384507805308,1.7350319621601094,1.7573640828251373,1.7067530561120952,1.6696450805561622,0
806,2.5865319327957024,2.5697403551547597,2.5821835311486057,2.5367638226011615,2.5773032580961686,2.5615741233023925,0
807,3.6623628436706115,3.6885042558821226,3.555072316674341,3.5457507890085274,3.7255999136994316,3.6059485559615263,0
808,4.6568540718218,4.621044969718535,4.719144575742938,4.75462953776846,4.754693904426397,4.723688080638746,0
809,5.75768991982982,5.677707714647455,5.742497252885578,5.635559331942035,5.6430636329086274,5.647259126310794,0
810,6.507337246116706,6.5328541460449765,6.541095444983278,6.571352706180951,6.568538395301388,6.546701678862176,0
811,6.975939280891739,6.945955146602361,6.975125477663678,6.90530765744254,6.970460178659967,6.900586732614709,0
812,6.87702051647624,7.015482588982561,6.752843999048095,6.81318433698958,6.794465232290088,6.872088789358235,0
813,6.0945559457175476,6.070047458730888,6.082785426154421,6.136428932911043,6.090525511591153,6.099859892212147,0
814,4.842047208442747,4.949898907171608,4.839823352381706,4.8979246984014075,4.860036409894672,4.8554582267020825,0
815,3.1482232458315655,3.298930522432512,3.230146031460265,3.2900666996182273,3.216564962033991,3.1844153358215053,0
816,1.4244591595474028,1.4283769029025055,1.4521044649040449,1.4226775977802586,1.4103655550409777,1.4262174230265179,0
817,-0.4350512704441296,-0.42676224452201617,-0.45235779692553485,-0.3114932048477683,-0.3538830665425172,-0.4685382548047419,0
818,-1.8795698844776318,-1.8757119400875073,-1.8677716199171728,-1.965671150825159,-1.8494581393940142,-1.8266595322728416,0
819,-2.7731628772344994,-2.7983072011235812,-2.810805402495967,-2.798717013876973,-2.7599302250115287,-2.8472536757019578,0
820,-3.1181564112243096,-2.9581896415815017,-2.991770135279554,-3.002522182847335,-2.9643182838643236,-2.947680584754287,0
821,-2.691284161942596,-2.7164921424287893,-2.6357224292066586,-2.6493198988159676,-2.6007828956465318,-2.6380966642387804,0
822,-1.8284141474155484,-1.817564951474094,-1.89291199664446,-1.9389721681278234,-1.8626724428462025,-1.8374449109718187,0
823,-0.8300982596650511,-0.8625054844886967,-0.7682034447854441,-0.8688183688943025,-0.8732417644515261,-0.7706505130940352,0
824,0.2769029682879097,0.2677793598919965,0.22397604393640463,0.24891102706260415,0.2206581451730491,0.35718885268221795,0
825,1.1150785330577917,1.1889839250437297,1.144429185659902,1.1686801244667275,1.0583700037911858,1.1588643735058899,0
826,1.5283767745355943,1.517165747212918,1.6282072810394161,1.5304872415021398,1.5631976818451787,1.519286953448038,0
827,1.6101956490256473,1.548988459335834,1.4843098815916307,1.4961584048239296,1.4952245239968367,1.5740852486986299,0
828,1.2246077488120362,1.1376371029849925,1.182569182941753,1.1837213780859037,1.3097523240568416,1.2501017383763244,0
829,0.6859499104184026,0.7017453655975792,0.7010485120803044,0.7503972854244086,0.7489755736259596,0.6513870905526562,0
830,0.12013764124097344,0.17088567266439797,0.07044692287157384,0.20919707419384329,0.21261237530503735,0.06274484068718537,0
831,-0.350417407968956,-0.35068959425633406,-0.4114581194327547,-0.310870113850913,-0.3525895323276513,-0.39994849967660573,0
832,-0.803914372151763,-0.7077974084749963,-0.7187302302768477,-0.7320046601098136,-0.6940246005855684,-0.7366643314479293,0
833,-0.7296129145414331,-0.8221214188434356,-0.7526689677808188,-0.7685611437769432,-0.6996927893644402,-0.7789210464630382,0
834,-0.677967062431889,-0.5709462883608634,-0.6419904819749301,-0.6133642498338094,-0.6486583204666169,-0.6008994190384073,0
835,-0.4171316525586842,-0.32008203891923,-0.458086341413039,-0.441963528827341,-0.4912202166363479,-0.3740877654442381,0
836,-0.13160895454782928,-0.18288883373669762,-0.12032778769889756,-0.08847438911690297,-0.07900550328091341,-0.1540845487978343,0
837,0.11885939973845364,0.101960784967528,0.14652613476297674,0.2644139580814171,0.25688272537340096,0.03963991905718772,0
838,0.3727642049188292,0.1755186500193246,0.35748030430960004,0.24426884173916197,0.3583181558206013,0.2996258774131946,0
839,0.33520213099064283,0.4138026258049639,0.37534902315823043,0.29599553737233675,0.3646076108484594,0.3331276126331629,0
840,0.21891604368737674,0.18253595191759464,0.2071972832167554,0.2912645252294327,0.2838730304464182,0.3052984095192355,0
841,0.10687498853495883,0.13392135157491034,0.1381292956320802,0.21926551922499526,0.16349203079876634,0.1557973253841644,0
842,-0.10473034721074588,0.07442027442112814,-0.04315000649589959,0.11225135470904171,0.020458759838632247,-0.053580846473977886,0
843,-0.10033662932759643,0.02062639226085288,-0.051246826004726784,-0.08297664259086163,-0.07766590556952238,0.008453848345802019,0
844,-0.06716027713173345,-0.06634963484298553,-0.05351222985395,-0.19581921620247533,-0.08083231189955864,-0.1704918567444438,0
845,-0.14970389552908428,-0.11359736251939048,-0.1325205532706809,-0.09904854758798806,-0.1273000596206633,-0.09195396495020353,0
846,-0.14798880120016814,-0.1123952049732896,-0.07474573111148283,-0.08686838760307164,-0.11040199414583099,-0.0915031175711224,0
847,0.08892354558514268,-0.0010338259494772697,-0.003477166471532553,-0.08479809084898624,-0.08581992237806824,-0.11357152891577049,0
848,-0.0328187330773008,0.006633387077270601,-0.07743355281461234,0.009138274665066838,0.003672328829578561,0.047068190666359234,0
849,-0.017517692237172384,0.08331652254804499,-0.048892470118904074,0.0655037702276448,0.0167592980964602,0.05696929749259512,0
850,-0.05337869380756614,-0.007872113473825972,-0.010642922787407284,-0.0034022473055233537,-0.0019847504750070202,-0.022846854593262717,0
851,0.057800030960233895,0.009175524823797725,0.08750266992551743,0.035142744276214485,0.01755543713031017,0.01064280680753989,0
852,0.03366379168445311,0.061282788015877124,0.00032259146995113064,-0.017937478359053505,0.07832094624310536,0.007066070604255735,0
853,-0.03144118528058751,0.014862952649316205,0.07212038647799418,-0.06604579131374834,0.022972710525262972,0.08441366973494513,0
854,0.04474290793029528,0.057816835103654256,0.009866633141614522,-0.034640440011980966,-0.10251512775190764,0.025636612328702454,0
855,0.04110132574809852,-0.03999601749764955,-0.043876128963877575,0.029025284602136808,-0.05740063341342794,0.07350760672655418,0
856,0.03923103229584819,-0.0635913232700104,0.0380323020758876,-0.044449390276667895,-0.042437901592260276,-0.002360848140710496,0
857,-0.008761235672916985,0.0633073741821059,0.02529153413118633,-0.020132392565067495,0.06013144630812018,-0.023737283896425043,0
858,0.02758820694467842,-0.0237534278877616,0.13427018997660584,-0.0024373243390692773,0.03339909174952767,0.024191984452850968,0
859,-0.05416497817070077,0.010616088921237927,0.010365877508129433,-0.04090362276364172,-0.1214446706452126,-0.024104411289942437,0
860,-0.0966945646655062,-0.031952360049355165,-0.02968608587790519,-0.023766490542038436,0.022899249123801816,0.05923811347462166,0
861,0.007743048542613722,0.049476801159988947,-0.040373032668305595,0.02708926684374937,0.008275125707263728,0.03629517634490884,0
862,-0.040544047466864803,0.06050936395295623,0.0171785001328926,0.04203173494022183,0.06251953754934314,0.04104454373767848,0
863,-0.06389288239948897,-0.009084742921266946,0.08994299162543486,-0.0396294512739272,0.0020030906649654433,0.06187039508514141,0
864,-0.06993150583602765,0.03723261793666139,0.005518824935233169,-0.01030462573083824,0.04853337458571355,-0.037588014813204645,0
865,0.008793678404695532,0.020466997083851718,-0.06083545119262596,-0.03166605419394845,-0.022904247684280815,-0.03364452169836121,0
866,-0.011977752311194158,0.04816891106789568,0.02172186005309271,0.050128742297066965,0.05170894334157684,-0.04912504494980207,0
867,-0.02116548676129618,0.001270166854288411,-0.01503678673527566,-0.020967656270764457,-0.03688451231962136,-0.02169993490562763,0
868,0.019567511315322063,0.05518512032948556,0.033596791509227564,0.01100399407066132,0.08145629549208398,0.03762456949049102,0
869,0.042655271468115596,0.008016205829080001,-0.07012263956957167,-0.04418718935593936,-0.08732065290941114,-0.02677934982074524,0
870,-0.00032910720270244346,0.03821539616359812,-0.02458323515697318,0.0353749217500782,-0.03271279810319356,0.021577680782791507,0
871,-0.012670460067986585,-0.01309056711443448,0.03190997210578195,0.002099975949049928,0.04168613187920881,0.021824680863550487,0
872,-0.009409876650857242,-0.09107892680164288,-0.0051126255348894955,-0.04293727339709207,-0.09526019688139253,0.04709029049959005,0
873,0.005880599898306721,0.07597754846782889,-0.03357545808484266,0.07107238420411581,-0.02561339771797347,-0.003984001249731106,0
874,-0.10679535924230765,0.015627390064048147,0.043205060102232656,-0.05636272555096958,0.018911750262957047,0.02641546211677317,0
875,-0.05151418075669813,0.010421535183514586,0.09864865023779239,0.08294170844548197,0.049374370568524076,-0.12496662694349144,0
876,0.06670417657819352,0.004471128863527902,0.031197197060638674,-0.020942331614994987,0.15384408396521687,-0.004457456267547082,0
877,-0.021565127820188688,0.008389428834912043,0.06823374516262039,-0.09101168766839444,-0.027068336606969595,-0.04469652279791527,0
878,-0.03067011097356414,-0.05838813870965577,-0.09669496580255249,-0.0200497106621867,-0.054216793665800234,-0.07960300685632694,0
879,-0.0034077890181736232,-0.09165029283644012,0.05489047442227827,-0.022911623873270517,0.026676134405218023,0.056778458114971855,0
880,-0.007117001737983689,-0.12247476560935769,-0.07964694933365814,0.006362292279251914,-0.0012805022696143918,-0.07243186988380146,0
881,0.003611500155866042,-0.00864723295447997,-0.027852790791472546,0.04392079120701149,-0.0819717979506726,-0.05262004747683933,0
882,0.05676928473484909,0.08529625562628179,0.034904969898895244,0.0032714013393018385,0.002874571104877034,-0.0879621541383035,0
883,-0.028661206024485325,0.058866042269008545,0.032523400504725034,-0.01872061903859454,-0.003374622020488568,0.007720554400345164,0
884,-0.02191602127504808,0.02910324426063915,0.028364370268747306,0.02955026124231944,0.10048332051095141,-0.03717925890843207,0
885,-0.021425215017316163,0.013107935005950321,-0.08541250387832948,0.07999158842138998,0.026710150390690572,0.017459363778716035,0
886,0.09155844425136633,0.06269847378006753,0.09885608783043473,0.0003465233514631279,0.028888969696222892,-0.02442374562839763,0
887,-0.026070581434003877,-0.0006699078560050398,-0.055484060169968284,-0.02204392178363121,0.0166614863221982,0.03939476066875394,0
888,-0.020410187093887526,-0.02172068886927898,-0.02718668892730387,0.015019334930122322,0.00045367068092040886,-0.1038892321059069,0
889,0.07397372576337671,-0.088581979006245,0.01413909312866589,-0.0471773943876338,0.02600450185910842,0.05519581759012462,0
890,-0.0001756314305393491,-0.06173653774832839,0.018053731808753307,-0.10214164711184658,0.04334491265592178,0.016978364724773768,0
891,0.035724209329196226,0.04848133028294626,-0.08163943483187128,0.04671296841691035,-0.05050851954016766,0.026781792806191886,0
892,-0.009890976842872988,0.045330606656001075,-0.03227219882135964,-0.11477994816417383,-0.005301823712664284,0.020791199768779266,0
893,0.07477622415695478,0.044643508425575754,0.04065367707703745,0.0006852493676278514,-0.03520574106783695,-0.025546710709447328,0
894,-0.006676831693180259,0.1237590301040202,0.03407211283668513,0.08895098950662846,-0.00750752666438039,-0.0015903928931170414,0
895,0.1151009555884771,-0.03150166195568542,0.10505524785220442,-0.041308748251850845,-0.027224199940402198,-0.02045877247451148,0
896,-0.04937140524207823,0.017264205426145603,-0.01612708295279211,0.04756193982693564,-0.01615518678053083,0.012135753860133812,0
897,-0.016470005633227026,-0.07006288082599332,-0.01027127877860549,-0.04201931908000422,0.11174350816939957,-0.05609036433713044,0
898,-0.03824427486433338,0.046302550715725706,-0.09430276350951086,-0.006323581899734645,-0.00043525990467550065,-0.034166320598904926,0
899,0.11661083330727462,-0.009528218792019441,0.05302187049853052,-0.02546114974297686,0.035247926487920155,-0.03517560165852643,0
900,-0.00110636967935282,0.005687751711557668,0.03165129116369348,-0.05375917478763739,0.058813432486768596,-0.035946654992504136,0
901,0.07004217895499544,0.06218992985360128,-0.0007269457338416746,0.040050347857040876,0.12726947109094247,0.10920714122973864,0
902,0.20864391138703978,0.3494876841271872,0.25557258647230136,0.22582654656879858,0.24059115447530524,0.2079214890014666,0
903,0.5190331078524899,0.5667636628284614,0.44292527858254616,0.5409039605350264,0.4279450824180292,0.48744416140574803,0
904,0.8635071490192905,0.9472772164819929,0.8566984013767798,0.9249075175169408,0.9946214090019381,0.9212396126913676,0
905,1.541062211795589,1.41444611846481,1.5453152626784574,1.5659656746384565,1.5999482739632134,1.517281296058011,0
906,2.3181667158299533,2.3958458189610754,2.291406609090325,2.401938496737859,2.395153858984779,2.2988507143901304,0
907,3.337969504699914,3.4179269813702593,3.2737583145762867,3.3435915123132167,3.342889232743446,3.349424562226974,0
908,4.465111165021321,4.429399502797677,4.488589622927816,4.499459035094341,4.447522973328651,4.4836357237056745,0
909,5.494223300766045,5.453331652329199,5.435248237448328,5.463763172576005,5.436996571137972,5.412030517542573,0
910,6.355537749150108,6.2903186033125635,6.350464754490151,6.291816705763385,6.30242254604666,6.309750118269558,0
911,6.926601535399048,6.798415917680772,6.90074182559852,6.905963871431393,6.813031027991942,6.8287571956578415,0
912,6.958238610306147,6.961078707429062,6.915453320088498,6.998950170670588,6.975259562904899,6.996651131226432,0
913,6.208079507764997,6.410641117769215,6.373455410260748,6.324980668969075,6.311197969455755,6.295547415277992,0
914,5.168984534309563,5.192841064350202,5.21681806968262,5.1843892499590405,5.198168900518581,5.126705605954173,0
915,3.594088336113395,3.627417319818953,3.677835262400326,3.6324551930002773,3.5873036124177347,3.588230636631341,0
916,1.8568802007054124,1.7795931140170491,1.9048153391091867,1.8156958114999058,1.769723899361571,1.782543777371942,0
917,0.019518626899691433,0.12722105319022026,-0.021238087282484552,-0.02752084337938835,-0.05813451813993978,0.008968309420835829,0
918,-1.5114218057965805,-1.6112648844554645,-1.624039627043566,-1.5801411374729846,-1.5269920562267878,-1.554503264888637,0
919,-2.6116967710355197,-2.6214470844524116,-2.6304371916660685,-2.6673725480142694,-2.6302907919348995,-2.6754461881655494,0
920,-3.028414396591271,-2.943444306571209,-2.986764250560931,-2.957313280795123,-2.9908290369254846,-3.02657571911098,0
921,-2.7481633773677756,-2.7502465728390697,-2.77129319075783,-2.8133622835476473,-2.7728680061481334,-2.840252794991866,0
922,-2.177643418445301,-2.005866164980487,-2.1681869596177403,-2.1481228429355133,-2.151428182372028,-2.0419009421984144,0
923,-1.0400759286294845,-1.065052673029508,-1.1684997211475086,-1.1002649853565662,-1.147754287512497,-1.129997443722352,0
924,0.09662751042986165,0.0266799498506465,0.04435373343945676,0.07677555677338721,0.021485958527467923,-0.03201014685272412,0
925,0.8673321392991423,1.0342228517286591,0.9905746364608615,0.8456017655061392,1.0100942476480723,0.9304478020622577,0
926,1.421131943636608,1.4225247081557928,1.4408409476482875,1.549419960459041,1.4346761630118243,1.4922125315972994,0
927,1.511621965562466,1.6456017868089337,1.6581114494373892,1.5707340721433205,1.5727120896314992,1.571703607574397,0
928,1.3962842054514344,1.2703530275279626,1.3417013691826474,1.3721632743607026,1.324300908971977,1.3415309072606527,0
929,0.8769328642747239,0.6631330929064512,0.9168420436732185,0.8463233845397772,0.8077367150929072,0.8969121817226223,0
930,0.22506735793763058,0.1779124335656984,0.27251965594608585,0.2201191842360581,0.27563709174669937,0.29482550148990655,0
931,-0.29498055275470764,-0.29366992156841987,-0.3587895968965062,-0.29842725233000783,-0.263235863563373,-0.17716422934872889,0
932,-0.653717080732338,-0.7348482029888319,-0.5933412057619909,-0.6080112945458835,-0.7862929093664005,-0.6122210151673977,0
933,-0.723147980574906,-0.7911084876651117,-0.7536635417493044,-0.8087584931589111,-0.7707562460342668,-0.8212261411825028,0
934,-0.7543227005788292,-0.7190107422908253,-0.6461188036875241,-0.694149851120792,-0.6260256663477681,-0.7009325218092247,0
935,-0.34163481510285076,-0.45198693670795026,-0.3909045493127284,-0.43757787363434025,-0.36446873470786245,-0.4076301508439109,0
936,-0.16420945014015806,-0.18036960127575527,-0.15714420312337601,-0.2308404785212808,-0.13955009958693027,-0.1329590400208481,0
937,0.10050426111914593,0.01241544431369758,0.011971669296552814,0.133109148233769,0.031773133683217686,0.05177611020921155,0
938,0.25762565822606714,0.3142289614038592,0.23028410908228955,0.19432840012883612,0.3168183710693453,0.29594126997041603,0
939,0.40749033864196893,0.30763300423586304,0.356879282999441,0.2849907734007295,0.2888968643052934,0.3890938106825603,0
940,0.3289007756383945,0.33495481945283406,0.33562849630150343,0.4063672406999177,0.25556822247858135,0.239274009635349,0
941,0.12063334372349731,0.10663351267333714,0.2901303034900989,0.10323354818025875,0.16811273290118103,0.19435810899945705,0
942,0.12998389494961177,0.17277159027041813,0.047058357154032525,0.05864931157883011,-0.005876259118490594,0.012729682398578732,0
943,-0.0751873506018032,-0.0460196840804284,0.01017198918528748,0.11845149669468602,-0.026044677392791336,-0.06032798488032735,0
