timestamp,value-0,value-1,value-2,value-3,is_anomaly
0,0.3084580473127054,0.2900958036697117,0.23000021953425992,0.31423146581349953,0
1,0.3923768764249569,0.34439366000457106,0.5074514004618794,0.45922342078656403,0
2,0.7627988485557191,0.9390129461399436,0.8831425161750612,0.8869314157437614,0
3,1.5210137770049854,1.5851131980688906,1.6497503065317034,1.532431854836818,0
4,2.4485949419347413,2.442043075535106,2.5970318609890986,2.498150353073465,0
5,3.517988345533871,3.4550277892660275,3.4557035983157327,3.5499670013196614,0
6,4.547460919785008,4.641944821045725,4.5906574671858325,4.640068976855301,0
7,5.605539937143293,5.517684914277114,5.640917977334645,5.567673551436891,0
8,6.444188362415745,6.37196050246843,6.425196303365007,6.439926239743035,0
9,6.885501167890683,6.902348411668486,6.897185595085257,6.921902365187864,0
10,6.938179929756339,6.899426176105377,6.893951207969127,6.886367120879947,0
11,6.30501886589292,6.218851118926498,6.240683269660409,6.211889221705658,0
12,5.021742350494755,5.070600360871425,5.013043045874076,5.070612287155999,0
13,3.499960857814835,3.546845087409178,3.41356228343512,3.4554485963262813,0
14,1.6941802518088398,1.6756785309438467,1.700555634010156,1.6794158402508381,0
15,-0.15466093931872993,-0.1941405183288441,-0.18365800837636592,-0.1930594294207657,0
16,-1.7294966384192016,-1.6774276809201243,-1.7495969494992916,-1.7239074108804338,0
17,-2.7243126460287805,-2.7445920320995265,-2.638842979080198,-2.796763096828073,0
18,-3.0364332116153587,-2.987607567733731,-3.001508870831519,-2.9444405986776037,0
19,-2.7434717329202245,-2.7530461893301363,-2.6924566723438472,-2.735515276598865,0
20,-2.056540547749919,-1.9345904578633941,-1.9778866927861778,-1.9104632846345948,0
21,-1.0314585766646989,-0.9386670854140945,-1.0236834348191832,-1.0667437978903838,0
22,0.18871729115088207,0.08113723751146519,0.15641997501281227,0.06116941904829129,0
23,1.0125456547782337,1.0643599700283282,0.9948514969492437,1.0887692114953327,0
24,1.4344009167849658,1.5595211144288694,1.5251696228345442,1.6183720057861501,0
25,1.5250247073651044,1.5545093595768449,1.4989421675867514,1.5157812471293162,0
26,1.2203262663263597,1.2325857796937165,1.2419937474253357,1.2121366951840609,0
27,0.7964097386959671,0.7233595926247605,0.7455973237135037,0.7960933950013291,0
28,0.19921847897237044,0.19920978471820197,0.1639718615588479,0.2815918466934039,0
29,-0.37445600478371505,-0.324607104632048,-0.26143910223829614,-0.35685917411951884,0
30,-0.6958699911094871,-0.6988582410423285,-0.719770621567639,-0.7562124870088455,0
31,-0.7954697221839487,-0.745534045695942,-0.8520774245352122,-0.7029120196226684,0
32,-0.7370014401762796,-0.6267244589811416,-0.6865469302923154,-0.6494534443998922,0
33,-0.488432441943294,-0.4382946316881295,-0.42758545703664563,-0.40605165943918664,0
34,-0.14882988045684276,-0.16968812074673761,-0.16259869514045003,-0.09780487684997691,0
35,0.06361668646076525,0.12384294121972737,0.07545691967816939,0.0665845340956572,0
36,0.31865900936328084,0.19977209152823017,0.26199113471830854,0.2651265960470126,0
37,0.37248686996652963,0.32678263341215813,0.39701298941905877,0.3739296799753088,0
38,0.28322873653959274,0.3072804248435372,0.26916913437012074,0.45438828815063276,0
39,0.17469229053079582,0.3094938308903312,0.1985254228624675,0.22804729739939528,0
40,0.0941241533769213,0.08109850917296543,0.03738537938154629,0.03546269415763299,0
41,-0.07828349091324893,0.014878615881754098,-0.10151445198244294,-0.0439114572283795,0
42,-0.11102173489795958,-0.16971142168020636,-0.1810984214125123,-0.11098613311857278,0
43,-0.16119783016728886,-0.16269482974343752,-0.16044302317497794,-0.05447238039387772,0
44,-0.08574655373529791,-0.1543377962953847,-0.08778850755038008,-0.17078207728396477,0
45,-0.04681927197602259,-0.12252912037367446,0.00980649292095094,-0.11397126306207479,0
46,-0.022294027552792993,-0.021121809941533988,-0.0171549002386244,-0.04766394596142895,0
47,0.04671304984616574,0.029288955847444786,0.03751092162737535,-0.026065243514596777,0
48,0.1280624398123601,0.03336017567576275,0.09247863383700496,0.04185518077498109,0
49,0.014135499985685446,0.009039008181475069,0.03444138725057617,0.014433758124984389,0
50,-0.0019475272231949114,-0.022866049572928555,-0.013990198323976775,0.028495806771088088,0
51,0.026039381191759654,-0.029982102299491872,0.006795500096857976,0.037753212561432006,0
52,0.012659468182249736,0.006338441059695806,-0.001784785267568509,-0.008136769949351209,0
53,-0.03341975404167894,-0.011143552251610525,-0.02043737178335185,-0.003871971874909458,0
54,-0.08205749428255374,0.07274146088418112,-0.011229447097720079,0.06675442649958258,0
55,-0.00013519242159915675,0.003652373804260491,0.02862400553500813,-0.02007319027849406,0
56,0.03293856923625461,0.05630261371502446,-0.05648645434500146,-0.07690667793743756,0
57,0.0362820663412446,-0.08621478090263483,0.027183448492339807,-0.02637815609306438,0
58,0.056706771608723526,0.01235131483576132,0.04744945950193174,-0.05902915161816523,0
59,0.06020886651933487,0.0470335106826139,0.011438240248990908,-0.0056221494285634555,0
60,-0.05534128741468367,-0.08976550919781082,0.03525248346075168,-0.1025673162241591,0
61,-0.013978883726233864,-0.005464058011375742,-0.019543379598130687,0.017384619807220968,0
62,0.009094810496589955,0.06625670215794185,0.0046315385006817575,0.009643042593902274,0
63,-0.06063019360566989,0.08396974572418883,0.039592120069338654,-0.05700726489460369,0
64,0.1059111183202099,0.08035296747913023,-0.017953382407319425,0.015499533053372705,0
65,0.04021338137415751,-0.05312454034095492,0.017254587396734068,-0.025829192647649733,0
66,0.019742882566694066,-0.006706282743189721,-0.0687359088991657,-0.02654824215546745,0
67,0.05695464601203873,0.008033221551567965,-0.00974297615721925,0.020897143801319778,0
68,-0.00822227945125826,0.06324692928186491,0.03799879137267732,0.03652276507266641,0
69,-0.02888895851495139,0.0035589545062133404,-0.033713825525862384,-0.10052208392423492,0
70,0.07322585813868077,-0.03258693342716068,0.08993729463720965,0.03903386572973628,0
71,0.014660971673399517,-0.005385928621225146,-0.05693528179935163,-0.047552588191459244,0
72,0.04434073911105024,-0.008823649239560055,-0.027845973083299884,0.04836190172107019,0
73,-0.03987079713439217,0.07316847577820414,0.044558543459252545,0.05114249383000461,0
74,-0.01601861839126444,-0.0028270986126828074,-0.035965566308177994,-0.04969567570401442,0
75,0.01553770801811459,0.08610220561773507,0.0017355355306238431,0.049571000808075846,0
76,-0.08473091927675387,-0.07487786481280627,0.02648455913068092,0.05177384435245275,0
77,-0.09303369313382812,-0.012851755615103572,-0.01900027247410741,-0.021112877893727698,0
78,0.017381188139102544,0.01289573380314425,0.04546914833920294,0.07838162868594936,0
79,0.05031684653618129,0.09663424820624368,-0.07485738926332855,-0.04178978104265637,0
80,0.0020988184495656674,0.021004011289876428,0.11787020109860291,-0.03976721256421313,0
81,-0.004660092926504873,-0.08787772230959637,-0.014102576793840405,0.039380397062212365,0
82,-0.01775902866098207,-0.048272837085762105,0.09272960671168462,0.030360818125521587,0
83,0.05527577879790047,0.0648958755057768,-0.022508397560762946,0.010564524884388889,0
84,0.07252443110652973,-0.017589854046243806,-0.026848455749906828,-0.028752989121853798,0
85,0.026600301532762164,-0.04138320007473133,0.048933311014847956,0.10693936539080082,0
86,-0.03616675835877724,0.06466376125756806,-0.046093799947409184,-0.020912410195834837,0
87,0.04375099810661738,-0.05290934423158169,-0.07949240803538901,-0.04253959789860479,0
88,-0.015418098012835687,0.053205867634730585,-0.017956249555866874,0.007459618343566567,0
89,0.05198487568380861,-0.054045173621148884,0.0183011189939315,-0.04884921550952234,0
90,-0.009936028031877004,-0.001447470560686554,-0.11275836476147365,0.08412029235676344,0
91,-0.03964962093597312,0.0018591387367957847,-0.025702573425961887,-0.1148265901055936,0
92,-0.07990545211063237,-0.02864393842198656,0.0482879945505888,0.012962063545443742,0
93,0.05574741028915824,0.0005514871370329182,-0.1198552351974002,-0.003426981416859899,0
94,-0.010343909608284251,-0.026677829777043107,0.03816405373751408,-0.024055255786726095,0
95,-0.023311592434055946,-0.037931398137116004,-0.03888989913987033,-0.020961548082763265,0
96,-0.03178748454311495,-0.008393080258605596,-0.06359292550223523,0.03708916902051629,0
97,0.09722136868725749,0.009542654920254558,-0.12900200760122146,-0.04135789381947713,0
98,0.06900097029750255,-0.040852814505843174,-0.03433594999058418,0.007660600262724441,0
99,0.1333864751823792,0.0661736618066938,0.16839430843715636,-0.03024099902642831,0
100,0.2537541800323846,0.12165114052313412,0.20255657130072888,0.2036199100663394,0
101,0.4110475678289494,0.3676015597652978,0.46817326161134587,0.4844860843910577,0
102,0.7987885466214001,0.8045629005320465,0.8749334032864251,0.9146940475073752,0
103,1.413729859062982,1.4670171644076055,1.4683873011375557,1.4008924894777497,0
104,2.246941290157398,2.3222130882805394,2.2545731725871394,2.2448693187700304,0
105,3.242108420439512,3.2393797237675037,3.256998514504302,3.2148207836591856,0
106,4.28247476673829,4.358617519088129,4.3015471672890895,4.385709212429135,0
107,5.288195987993787,5.273426025379205,5.354454133487665,5.358454990845119,0
108,6.208307021358693,6.351529941967245,6.184164470789721,6.2774639579966856,0
109,6.848993771442027,6.886549775203192,6.900540416651326,6.8452926207554405,0
110,6.989827986363428,6.978627636739379,6.88024898705925,6.9372784437187285,0
111,6.4553586791025825,6.48295924374767,6.366321377376416,6.422856946413526,0
112,5.4408791658508395,5.394961694156572,5.332279333278731,5.362308462795659,0
113,3.7860313727640507,3.8357321710519763,3.7214862586489703,3.851832241298604,0
114,2.1055613080421973,2.1161160575369062,2.032721272989314,2.0383824287634007,0
115,0.2500056197437627,0.15951743099467358,0.2011113934955963,0.18699654539743188,0
116,-1.4710839216312486,-1.3574919484749732,-1.4368133727421861,-1.3932262528352828,0
117,-2.508584802213683,-2.5449397798596047,-2.5511619688145513,-2.5585563736583024,0
118,-2.965755436036512,-2.9823670653497474,-3.043182915196617,-3.019802195190757,0
119,-2.7683381271067478,-2.842867905081359,-2.858161884737975,-2.891730240695872,0
120,-2.2883565949999904,-2.2485366087278518,-2.221412744720694,-2.19131714044395,0
121,-1.2073598297832968,-1.259209556142539,-1.3002958766909278,-1.2400023386161172,0
122,-0.04332087804224566,-0.12491104596094013,-0.045951119407022595,-0.13386497029171723,0
123,0.7860066940463882,0.8591298940726997,0.940768824896016,0.8584733733070904,0
124,1.4266508104214959,1.4102467867097186,1.4532145666685914,1.3929961475832837,0
125,1.649117248093548,1.6924088131422586,1.5525994619803243,1.545760943689174,0
126,1.3331533856112059,1.437971848683709,1.3744896357638323,1.3634695427516668,0
127,0.9553363417885037,0.8878852534930742,0.8877011716059372,0.8940803155379059,0
128,0.36083428900028014,0.2545716561974387,0.3144364815897809,0.3693355477627443,0
129,-0.1816038110741989,-0.27500926300655587,-0.22551800126309254,-0.31600511653439967,0
130,-0.5529653010736462,-0.6088110960719129,-0.6234748610303589,-0.7166167616323309,0
131,-0.740399410709529,-0.8257188093936955,-0.7751577452352303,-0.7289379005990249,0
132,-0.6974126757955877,-0.7077733068071781,-0.7527605695977952,-0.7256360984253298,0
133,-0.4661854558301319,-0.5649393126326343,-0.4964355229814966,-0.4780990400268168,0
134,-0.23751165016500947,-0.1897590708604973,-0.11754478108926479,-0.18914714024199608,0
135,-0.044800873576664624,0.1340456220187421,0.10613001736470923,-0.005538199255540166,0
136,0.2994956333947842,0.2633660522341656,0.2084219316356671,0.28888884199180476,0
137,0.35434114826618635,0.3129252300261113,0.2915045694906804,0.33516312050425934,0
138,0.351494885161557,0.3750737610946271,0.24267385826322557,0.3325699383317058,0
139,0.25056400395503475,0.22917366010856605,0.21736909395837536,0.18607863382404366,0
140,0.139097401900968,0.0005824767053494578,0.1197135185856607,0.08052864782938451,0
141,-0.019099353605354398,-0.11403050288693378,-0.11704251867537793,-0.007629044756133234,0
142,-0.1589407674295621,-0.08413929171176412,-0.03114764466490816,-0.23797525540205888,0
143,-0.0805563197572538,-0.1593425379684273,-0.1935658958624049,-0.1454760229304744,0
144,-0.1830604722017647,-0.04714252506191178,-0.1488174349505046,-0.08613424681683861,0
145,-0.12202454404780555,-0.11909969780959322,0.06065964499733334,0.028591707237519373,0
146,-0.020610796130034737,0.023280111584276123,0.04635019786878053,0.0006594009805252349,0
147,0.0408434267434876,0.09374801256439651,0.09200228404898848,-0.04792197679495189,0
148,-0.03399676747744387,-0.03417269324040194,0.022012337503974418,0.12556657187804787,0
149,0.05293438105058211,-0.021395146246648775,0.04192558078869336,-0.1057139824992149,0
150,0.008535671558444641,-0.03212784691227701,0.0027649521537488793,-0.0754866102779515,0
151,0.004932653318213661,-0.0011089364813234165,0.03912417041905673,-0.009386693024834785,0
152,-0.029009205689700304,-0.07058393618010166,0.010715607256840901,-0.020450554720095413,0
153,0.014729569249572635,-0.0866539540393784,-0.003593497215022313,-0.03630249189488376,0
154,-0.11089507949137377,-0.06022072470915855,-0.07350935069205143,0.0879465737225482,0
155,-0.002473383923077433,-0.042581157473092456,0.03237195547363598,0.024661193889747485,0
156,0.06754693253261815,-0.05846396621585291,-0.04653966845034022,-0.022537000178942806,0
157,-0.06515233921895798,-0.0057391990857335925,-0.09579056176099178,4.232481098814453e-05,0
158,0.1458934269202204,0.027599451557395915,-0.07136475321097994,0.034989674709686724,0
159,0.04317709805192654,-0.07090428132274011,0.05501437514773804,-0.05359464054097749,0
160,0.03344059077969855,0.00887548456215304,0.025264896173193534,-0.02395542957036669,0
161,-0.04843733269883304,-0.035796446903699944,0.08361108805182245,0.0303356094567405,0
162,0.0574523629155935,0.05062249094858787,-0.010948201446322255,0.013013018038280056,0
163,0.035617684908895525,-0.04033099250307301,0.0488056628793529,-0.013770596195360916,0
164,0.06884467749521815,0.07511190975887834,-0.07613077729276331,-0.03348619445079516,0
165,-0.05464308809931801,0.005484470040405466,-0.039790813099636294,-0.02115222544527952,0
166,0.12238123004251514,0.14350840587677957,0.10383772608504203,-0.06510508372185136,0
167,0.05479622437918301,0.015157733418116917,0.012804935850534634,-0.06628275895186586,0
168,0.08048393670883122,-0.0014732302716087132,-0.06332433107901585,-0.021838563945159914,0
169,0.0202348580334481,0.061396841680945856,-0.06363151690528147,-0.032190998883228496,0
170,-0.012926658142919064,0.0683671233287582,0.01887261712039114,-0.07040997175782537,0
171,0.021910436187491424,-0.028539829962545026,0.004583616805597933,-0.0629049433152034,0
172,0.03513309489609063,0.015064208108509764,0.04985545236395172,-0.08057956331280203,0
173,-0.04209125844400777,-0.023030210236586014,-0.030252329982705085,-0.06974341750561805,0
174,-0.0015212934009979657,-0.030054574047589454,-0.004466466326363188,-0.022153042777413638,0
175,0.03606330311410441,0.007902943219016224,0.00011090470109792977,-0.033720966071886065,0
176,-0.02138771063867947,0.07401254265429151,-0.07954544175292518,-0.04664947825461064,0
177,-0.04204373484521597,-0.04586095786720351,-0.006387991221837243,0.12846386820612457,0
178,-0.005070230877966153,0.05748252801344958,-0.07387269415708006,-0.005356678412291075,0
179,-0.015303841287399181,0.11824204722698112,-0.01595557762263475,-0.11494695794103478,0
180,-0.029894030026421225,-0.05264745148455627,-0.003897937109057731,0.003870134543008836,0
181,-0.07339437272832262,-0.030158310817588435,-0.05652117363738571,0.020381909720212817,0
182,-0.08434342819623583,0.023667206097158774,-0.06565729281382483,-0.025524554214885527,0
183,-0.0004447866405233051,0.08372541914696792,0.04213832796970015,0.06152134166765276,0
184,-0.05326693981102002,-0.010781906987427458,0.015873500468501535,-0.04180805286875219,0
185,-0.05165632381719661,0.030782092151999,0.08995435133694873,0.05847739858604498,0
186,0.05963608411650082,-0.11702579600016233,0.049558540262956155,0.020703819112224284,0
187,0.0032548676802077463,0.00825383216020899,0.022958402494976063,-0.0037566728715980584,0
188,-0.021599769227164035,0.03383520417650776,-0.015757555828643993,-0.04193361746189229,0
189,0.026314705192835318,-0.0299439358057238,0.03734102367097329,-0.11640762690327291,0
190,0.0533965346597563,-0.018672427496327134,-0.06454423356777272,0.05203964417571659,0
191,0.009971108476607425,0.0914909939481763,0.018729179807994253,-0.0918388731703811,0
192,0.0037785932866332694,-0.02881775815816437,-0.03365896509358227,0.027784478632438884,0
193,0.09267969423154289,0.057953485901980996,0.06316691658899441,-0.015186746974600726,0
194,0.01103197122671355,-0.041666370192065656,-0.09501208396186415,-0.06779102180645642,0
195,-0.02244957218806745,-0.029394729437347094,0.005908266403023953,0.07010091907406699,0
196,0.01523555336117868,0.03958003502112881,-0.04070714531928773,0.06052156477388741,0
197,0.006864328046713398,0.0703831705914497,0.019969918595326288,-0.04590310572568421,0
198,0.07768738649967157,0.04025922962930102,0.05737019132753661,0.031498887364851486,0
199,0.126437263843013,0.14010616468461037,0.07578159870285883,0.08033107866180243,0
200,0.16989047713860392,0.12333753609003864,0.11382903440403176,0.18417000900359629,0
201,0.37566354658814666,0.3687060657574846,0.39952073435094665,0.3638051940883108,0
202,0.7953960916141233,0.7720019250635335,0.8100281457714104,0.8224331675159786,0
203,1.3155593690504104,1.3131766107347673,1.3555545580301658,1.261716439679766,0
204,2.099861373651599,2.0185157603579644,2.040388017627156,2.082391467942571,0
205,2.8900991701927627,3.0090429363237594,3.0196802097572912,2.8933940536651606,0
206,4.100905047979728,4.035485314346216,4.003428161758801,4.0520486537245874,0
207,5.11329963811119,5.0952396541298794,5.151283668788081,5.208400839492304,0
208,6.008627350676365,6.028931055196664,6.1535798566607225,6.045094929788502,0
209,6.7204569066425535,6.805932268576153,6.75302759649963,6.728935765510585,0
210,7.023566619480802,6.863485923307565,7.012334568700648,6.917233561081831,0
211,6.664345902756521,6.577652940533908,6.668048286916105,6.658280164003285,0
212,5.583333811876072,5.693314260411736,5.597556975196103,5.733547371432159,0
213,4.2578919711786165,4.180032617749451,4.3023306155723855,4.1245735130681265,0
214,2.566038230130155,2.5411373843235716,2.6028430060841967,2.497123482570455,0
215,0.6296816319404742,0.6874596836369019,0.6297627079513728,0.6565471230071399,0
216,-1.1946685404960573,-1.0214902333593323,-1.1220441511970705,-0.9822767288813421,0
217,-2.329044830895289,-2.2904502137332567,-2.3762444528684106,-2.3598653425072977,0
218,-2.931688563764607,-2.9252181108869677,-3.01244637316549,-2.9821232800737025,0
219,-2.9505464632878176,-2.938324057729853,-2.9228438656133737,-2.9257892849016476,0
220,-2.3876287069256716,-2.4336847042273857,-2.3874887793557567,-2.4661614105833416,0
221,-1.5227495570674148,-1.4421671967610696,-1.4939925620946513,-1.43319277526461,0
222,-0.3004759459973646,-0.3627267323638593,-0.41163201233069235,-0.40246407635369447,0
223,0.7108254428976686,0.6654802784530396,0.642846731767033,0.6485561967923399,0
224,1.3134422862898993,1.3357026874408513,1.2918503538283388,1.3686232461347319,0
225,1.5857215040253279,1.5766633321014696,1.4896767130451523,1.5258597407534213,0
226,1.4344539154627494,1.3916153768687156,1.5472778073621873,1.4123720838417284,0
227,1.023712371100181,1.0217457707714872,1.0002096375146616,0.9937362105614181,0
228,0.5115456706408571,0.45174601371879003,0.5988228791714524,0.5234115918277856,0
229,-0.04087381674874302,-0.1474025956106127,-0.06783663291017328,-0.04141602719285363,0
230,-0.5405928948501557,-0.5437230763452816,-0.5359881677547732,-0.49136296492745296,0
231,-0.7678348672747864,-0.7115292133614702,-0.7184751807503378,-0.8030494698411339,0
232,-0.7529892843948873,-0.7025968862246608,-0.7231943802161763,-0.6768377696135536,0
233,-0.4775796784906007,-0.4878143505744874,-0.6113846328062742,-0.491476910318734,0
234,-0.264561682574593,-0.266240463819758,-0.16636970439510768,-0.23752749932341632,0
235,-0.0381627930436487,0.05960314705344968,-0.048693543202758406,-0.12460059736189374,0
236,0.07295979178748871,0.22639956869526418,0.2544734088307515,0.23810453382297372,0
237,0.3118501453106088,0.28047239018817516,0.3858126550158376,0.360929358922501,0
238,0.3500050334931935,0.37056696862049,0.381605965592009,0.2600707611361497,0
239,0.21258436841215617,0.2543350353939759,0.2804807452568052,0.2932038513329611,0
240,0.0789736496137704,0.03709600249311286,0.13940574978449366,0.09319721645476803,0
241,-0.1041663105259951,-0.10126031582275713,-0.05689169917738507,-0.06382784542866819,0
242,-0.021612822142579806,-0.10085276565943567,-0.10325067185287937,-0.04163828041143507,0
243,-0.1957015621730246,-0.11810696223600935,-0.12305399254827618,-0.16563230497265416,0
244,-0.06235172480640583,-0.025899489740651815,-0.11315932611131928,-0.19454371555149647,0
245,-0.1400613277076642,-0.03957355984011123,-0.06798621665301165,-0.12545774195814086,0
246,-0.027971356870453577,0.000883227704607463,-0.052336200930037026,0.023476381995197165,0
247,0.018521153122468464,0.04607805252054203,0.04594190444816397,0.01794246485396876,0
248,0.026699910240657005,0.002282604044306011,0.09392867703717371,0.05190715872265491,0
249,0.0034568971994879127,-0.027072110987732975,0.0010084112958822708,0.025635681255509128,0
250,0.09242576553487641,0.04893906585099315,0.07075235229133296,0.03797875761580927,0
251,0.1571007704392844,-0.12514683878999186,0.02724014515328926,0.013452086517818523,0
252,-0.054158422059883415,-0.0013499679095222159,0.052385812218775245,-0.007354961195978483,0
253,0.021019937711980945,-0.003018964816426323,-0.022485571281091028,-0.005005295139048238,0
254,-0.04384927252704318,-0.09155339664710606,-0.016967899524070885,0.06814056550282926,0
255,-0.011754864423487341,-0.04267823435547187,0.06014813754836217,0.036581393901673774,0
256,0.023427942016511195,-0.04390515392227763,0.05928325103515689,-0.0382358922422685,0
257,-0.01338414295715171,0.05789179382692596,-0.054155476089064875,-0.0038203309344751286,0
258,0.0014243450579382914,0.011950875428394968,-0.08126901321486664,-0.010784618277066919,0
259,0.056232992589072106,-0.0412367795957869,-0.06927904313707804,-0.0181286611361254,0
260,-0.020706251390428816,0.004289307017148574,-0.0310608106796608,-0.06574081748611992,0
261,-0.03123500347429403,0.024725702528123065,0.05088769880225395,-0.02059865601664302,0
262,0.01886624856288846,-0.04840187221817221,-0.1003331585535905,-0.0436004462333688,0
263,-0.01371452181435304,-0.007320956997538079,-0.009921246234065307,0.011688580743086778,0
264,-0.040895024215213335,0.0862136339628649,0.01569264677263609,-0.021757379919457708,0
265,-0.001047807513038402,0.049416645403887856,0.018952814610955944,4.9695750464666475e-05,0
266,0.024843812979146323,0.03580679082607993,0.015580550820465257,-0.006944721286557803,0
267,0.0615730804492133,0.04143542165955866,-0.02950329043287808,0.06155239964064518,0
268,-0.005478087972252945,-0.029337080086467838,-0.08595441549606767,-0.03231900699056818,0
269,0.08441811335518591,-0.038274390214668386,-0.03999336845291322,0.06208626622274778,0
270,0.0052636683642144355,0.0047500469144843025,0.005026025680505857,-0.007930271152965039,0
271,0.04582741724807342,-0.04533600753106778,-0.0688435725261374,-0.08158238303678864,0
272,0.0425080080268651,0.02916085538821044,0.006728027339340433,-0.0061086932426583414,0
273,-0.01017177104491915,-0.07535284557834478,-0.07449966755800475,0.007850544004601634,0
274,-0.07315208031870098,-0.06274075471317794,0.009619984602845614,0.014286108051857456,0
275,-0.0008146866435882481,-0.002223197857821356,0.009642913928942036,0.019768890397946732,0
276,-0.029778060682877854,0.011023796985389248,-0.04150701494534617,0.004418841905476842,0
277,0.012617009525618613,-0.021881603686540102,0.06981878513961345,0.016735469489402976,0
278,0.057628295092298734,-0.01448189180038217,0.015843931381871085,0.014351391820575507,0
279,-0.015087845807531688,0.029464200899959474,-0.09649325509463792,-0.12016379649850342,0
280,-0.013503824018093127,-0.004834018300456644,0.004244984577771759,0.040715916100044464,0
281,0.04072619352630802,0.04214382322831635,-0.06993122472657759,0.08177056679182904,0
282,0.025400745305739283,-0.029412449081157345,0.024068755915648905,-0.07945462491432591,0
283,-0.029972212943159285,-0.031545745603189644,0.0220351050996596,0.0068756602404107855,0
284,-0.05104425321387851,-0.006361952658158564,-0.015056409175071955,0.0016177863643869613,0
285,0.006654778901591179,-0.003381503623913492,0.018061636144066577,0.06998283983092636,0
286,0.026732481271099895,0.05516369361007026,-0.05792979561550612,-0.06064440396367551,0
287,-0.01360632905562117,1.1027179208946986e-05,0.0029974103773852453,-0.06315652228408242,0
288,0.03206050056289897,-0.04548546133542102,-0.03485528868402692,0.04259537269368737,0
289,-0.07854327066058138,-0.14111536234326713,0.04612217971988552,0.004118653248335967,0
290,-0.07772895984306671,-0.02806385487035209,0.018289391855893726,-0.11692094158640792,0
291,-0.07083971831560709,0.057041937652100354,0.03995041257740678,-0.011536989666499473,0
292,-0.0511814587650716,0.028558945043522705,0.09305045075226534,0.007423007168666902,0
293,-0.10754008756615353,0.03820366231550255,0.0025138932341383815,0.07245200616388929,0
294,0.03657767712087633,-0.07330459545152672,0.019413627361519317,0.02480171288030887,0
295,-0.014739392748205443,-0.011653883849503265,0.007109103322185126,0.02198225845509398,0
296,0.010041131364282575,-0.03198716473786858,0.01768003898933817,-0.055813957743738256,0
297,-0.012487075643170854,-0.0032754878076064133,-0.015002787424604137,-0.009044092536131067,0
298,0.028692629703170713,0.05881849397722524,0.018160713023595502,-0.019080047292897757,0
299,-0.05497581840168307,0.006701797057984814,0.02990767566446832,0.015468054350653543,0
300,0.10013897245699763,0.12203347507840294,0.1504197228438062,0.09279789182841243,0
301,0.304763177013938,0.3574268421597362,0.34848732430964474,0.3609646031787095,0
302,0.6739936669059992,0.6290002525856844,0.665388522987439,0.7037634788901039,0
303,1.0447384847445234,1.1364935838003314,1.1710482891851621,1.199026572272016,0
304,1.8189682003429821,1.8534122931610568,1.8296038200992175,1.8062118885868774,0
305,2.909013872411636,2.700067543192562,2.740986892516752,2.738972145295124,0
306,3.804933345605559,3.7765774071655427,3.8013874135111263,3.8083757982422646,0
307,4.942784901827058,4.893341158310455,4.908738404993429,4.929079554150334,0
308,5.916188128350814,5.901661492328122,5.843603508100755,5.937953285469716,0
309,6.728746590659976,6.595292978704091,6.6344460676762145,6.631858592572379,0
310,7.002834280077511,6.988742026125174,6.955056714212061,6.9819947510071385,0
311,6.779217191536657,6.775455545602545,6.703253570165319,6.759008292578708,0
312,5.931115261849549,6.019782725546371,6.002524072178041,5.882423041817171,0
313,4.647112330410294,4.682846540341117,4.53246498513128,4.611636166070291,0
314,2.946649567222017,2.981462000034596,2.8785215765987475,2.902945286806995,0
315,1.1465279365913432,1.136195780396721,0.9939544864649199,1.031523608897328,0
316,-0.6802280428287029,-0.6384015384963073,-0.6038490301636527,-0.7337991440390217,0
317,-2.2204409870693036,-2.051430221456184,-2.2095384171080816,-1.9969024590389581,0
318,-2.8303226887153246,-2.815473122504313,-2.7790844415513516,-2.884941453690498,0
319,-3.0794667542697605,-2.9997363576303386,-2.927552913377031,-3.0437165034551086,0
320,-2.5817424009168786,-2.4945881053410757,-2.599355474074409,-2.51104736479499,0
321,-1.7100199176964836,-1.7245770907932971,-1.7955698839656988,-1.7019381746907578,0
322,-0.6706658176086722,-0.625368695936102,-0.6434136553320933,-0.6447628582878064,0
323,0.37165625440990324,0.43279238922372276,0.43214998664484555,0.3948312504424795,0
324,1.2865442793472852,1.236205729178418,1.1714792882771832,1.2361320782635956,0
325,1.5366202250798868,1.6151990327585954,1.5838913359097406,1.5535398539551817,0
326,1.624573577922653,1.5580427621330004,1.4968330475186171,1.5263698704998527,0
327,1.1835463239048654,1.0898794285941031,1.189799793122015,1.1928090502742923,0
328,0.6341268483583167,0.6497663405362311,0.6995861538656548,0.6158424118056491,0
329,0.09324747047957045,-0.02625675770726077,0.05224982117637886,-0.00909782530638674,0
330,-0.48786996459530446,-0.4258157656240848,-0.5517390355039857,-0.4841677331116251,0
331,-0.7557018988817372,-0.6976088304081507,-0.7965477586089246,-0.7725032837240196,0
332,-0.7985111853377632,-0.7948510918160211,-0.7803570722033939,-0.7290172312642187,0
333,-0.5598798051295475,-0.6189533798960667,-0.5313517304881431,-0.5244794893721136,0
334,-0.3458919161845257,-0.2886304226732513,-0.37566294344109674,-0.33157879356164704,0
335,0.012825750210212296,-0.06968237839221161,-0.04248007639987741,-0.0034737316201400026,0
336,0.1748916331791367,0.0650264471797139,0.18150298245019297,0.102639013228378,0
337,0.3031452903712918,0.34663424524925623,0.25736383063051227,0.22484219701306524,0
338,0.36001519992623576,0.37762686615508345,0.32144192149325485,0.34296253012306227,0
339,0.25214812013414145,0.2361404773174613,0.2380831451679116,0.30312515022609193,0
340,0.16592907454309222,0.1351451890410784,0.17385011534258205,0.21066336822949225,0
341,-0.054996992372381065,-0.09100547874325578,-0.08386381109100749,0.03435912482227389,0
342,-0.03811584239927639,-0.06314546372891222,0.03391496194616525,-0.09720395148110514,0
343,0.05271701209440553,-0.07249952684009381,-0.10150045082120569,-0.17757221207696683,0
344,-0.05445935441372625,-0.20203153135892385,-0.06878678728269996,-0.1590014129782032,0
345,-0.12050086135606246,0.021154751952354195,-0.06255549408701411,-0.12606152504071258,0
346,-0.009274011791463817,-0.12410205408204208,-0.06979401085586862,0.02135580879216291,0
347,-0.009999370723883126,0.005502833121668809,-0.0845265976527187,0.05949064393182421,0
348,0.028456674077164068,-0.0018058811085911453,-0.013256369794317116,0.0063070162287302,0
349,0.019373303255244667,0.020542246650860144,0.024934307504656465,0.02227325177612387,0
350,-0.03288499275475498,-0.00010399219355261904,-0.031358537136173134,0.02678548671860348,0
351,0.07010705625037897,0.03604439578764278,0.03766748242393708,-0.0723822106645109,0
352,-0.008739110341161396,0.03015441425813127,-0.03019563942989832,-0.003883183668122083,0
353,0.006416598276165742,0.025893887936057198,0.005551540800030942,-0.08096407757948747,0
354,0.05568687069132852,0.001910693360642311,0.08343675926527977,-0.04441988936941875,0
355,-0.06886081838825746,-0.017862614831798268,0.007734510643357995,0.08144366984528803,0
356,-0.007847837138157975,-0.0027551303580719308,-0.11401757939413182,0.0037061848914933596,0
357,-0.027462816390162157,0.030290234523235583,0.0034835272469854683,0.027326497369357803,0
358,0.07332105416638819,-0.04587691046744451,-0.007497304546007276,0.013358106144415065,0
359,0.04978161023588063,0.05877012335641126,-0.01504501967463651,0.017526184460320886,0
360,0.01870292133179607,0.007978379342657568,0.01993707575368892,-0.011407037869557535,0
361,-0.04260584289868584,0.045719367256742985,-0.049772571508994404,-0.06531404833748654,0
362,-0.054210175420919646,-0.015125958623110773,0.05409567942142572,0.059261281317060835,0
363,0.0620116360811245,0.04573007903451638,0.09250990779490273,-0.02980709275596983,0
364,0.028343236407921624,0.010388846254819978,0.03400046606540227,0.029848554206117837,0
365,-0.013386390477216408,0.00904485543207273,-0.035447972652589664,0.07046244696053568,0
366,-0.0001487753589305969,0.10441438811202822,0.06756777792651385,-0.012436148951322725,0
367,-0.019647608561098807,-0.0043898769651653895,0.05807514659450636,0.0023254116967026,0
368,0.01564177727959735,0.08542862550499818,0.03398531373155825,0.05345123329746322,0
369,-0.02039674286801731,0.08083557397554546,-0.05154980432509742,0.06338222947389374,0
370,0.05452354762076666,0.03862934942297796,-0.04871341285340286,-0.03491201110451113,0
371,0.019995911136970013,0.04453103891529321,-0.04323622850836118,-0.10368062616627875,0
372,0.05693672955018286,0.030522841689056546,-0.08671517122886314,0.061171167004548894,0
373,-0.007429133962823104,-0.08826217146332985,-0.0244277221926552,-0.0550109007128681,0
374,-0.030659987707748925,-0.027448038640289944,0.0339761213966431,-0.03296814436699417,0
375,-0.03578879258052607,0.003926286504218351,0.027825345045792142,0.01338395165479964,0
376,0.04832214026510002,-0.011345267905473787,0.07088179392119327,0.02932326395208566,0
377,-0.012347325349356217,-0.017632307794734212,-0.011967563724516971,-0.08148205245493656,0
378,-0.0015736953633194422,0.05550173650687822,-0.05202526285980572,-0.005866634912335913,0
379,-0.06652174764094859,-0.03569540595375756,0.010778690807920783,-0.01841070736289491,0
380,-0.010843992324296657,0.0012388161642915437,-0.04158680760965418,-0.0026441777234693874,0
381,0.04429837605252134,-0.021794857377963602,0.04267017684209329,-0.00953160382664896,0
382,-0.09115347630199372,-0.053268390613164025,-0.0029366064904135713,0.026141920119046723,0
383,0.05679243172257957,-0.02436695748512172,0.008280273864046757,0.06882944867057929,0
384,-0.010109633464136148,0.02768095218677132,-0.040793334469396786,-0.027824771187155373,0
385,0.003793711026244591,-0.03685811151766448,-0.02519100121984845,-0.029145542015655838,0
386,0.0066954168199285955,0.0691648292562562,0.0845732961690919,0.05140802457691885,0
387,0.024599181876273888,-0.009720180611243062,-0.023274984454373544,0.024528818083063,0
388,-0.029436393941840278,-0.05420903567769758,-0.12130687034311567,0.11324607816161084,0
389,-0.034558449580585564,0.042886081681514816,0.039024450695281016,0.06197970879335226,0
390,-0.00715753133846251,-0.037384193636795446,-0.001507574661550752,0.02812784518284896,0
391,0.028102264318943197,0.0413358946965306,0.02981275975985173,-0.022646850064185563,0
392,0.02097377523395569,-0.02753190276126463,-0.034475917658512385,0.03393736334295185,0
393,-0.06232738170870758,-0.08526531219276096,-0.06547817847780306,-0.05581795998735885,0
394,0.09181483434024654,-0.023970871606866603,0.02904116576204496,0.008016768470955444,0
395,-0.00990459501097465,0.07055354687716602,-0.04791681229656366,-0.040910580949738456,0
396,-0.07827794979931088,0.0438888759560606,0.031435705304805675,0.028576966156727137,0
397,0.013485384549210461,-0.05300130329394837,-0.07774311385440807,0.06890251151373138,0
398,0.01936062493966572,0.008746227119492932,-0.04227325365843954,-0.02609373994399109,0
399,0.17613905303212807,0.02990883857732228,0.021478894897891045,0.10921137222900572,0
400,0.07891547026810775,0.19355418606812091,0.15937103757266982,0.07583244700285391,0
401,0.21942108913164313,0.38139755783217977,0.25359432592619513,0.2607881903851264,0
402,0.4736747551545317,0.49773091231731303,0.5671276187820208,0.5460982639696016,0
403,1.0839950627673183,0.9856816444649362,1.022114148358759,0.9490244034509091,0
404,1.6780640747247224,1.5863854818366878,1.5742625515421014,1.6473347799670928,0
405,2.5807630999899365,2.5710495105548956,2.5434655111331588,2.6705683975007384,0
406,3.451276248953772,3.554274933950494,3.5036420737917653,3.5535936371786323,0
407,4.640023970945891,4.607379671567403,4.662037590460124,4.6604924775399965,0
408,5.676280225716591,5.663650727679829,5.638943436972757,5.637611097192902,0
409,6.462597009533427,6.472865337568979,6.468979492995383,6.469792446529178,0
410,6.862487403904509,6.971733014144609,6.8942021011672745,7.00196140577705,0
411,6.88521468551743,6.912239737001272,7.0024747032390025,6.909700454392813,0
412,6.209853162883593,6.178979249557545,6.237898220335599,6.184623885393743,0
413,4.966064181038825,4.9929014824779205,4.972189096234283,4.925658864369679,0
414,3.356654274656055,3.35478440241304,3.344789792982179,3.344517115106458,0
415,1.4006826982733922,1.4535943669344622,1.5919123828496895,1.545597460106537,0
416,-0.24959707972747042,-0.2550686020827643,-0.30485273405443164,-0.20217198365598987,0
417,-1.7894273177548858,-1.8138363471455472,-1.860663635852982,-1.769682878050144,0
418,-2.6502021561954816,-2.770451120516984,-2.6825213126727476,-2.793981447108581,0
419,-3.004657844381453,-3.004943234486791,-3.0433077267275364,-3.0149311411302087,0
420,-2.6681050929856402,-2.7777656066071845,-2.744709756383036,-2.648929885956592,0
421,-1.8143330281013132,-1.90975702738837,-1.8664664427883744,-1.9322102902182705,0
422,-0.8398572528826629,-0.9544955402159149,-0.9057994651006036,-0.8873072561913324,0
423,0.33927623522338823,0.1906646225034832,0.2876745575032461,0.08075650854367912,0
424,0.9778785200636294,1.0666411760346342,1.095827820751414,1.140746523347118,0
425,1.5519802476408437,1.4961190876735364,1.5472345496587714,1.5476131726229347,0
426,1.5965823505386632,1.4633468355615284,1.5375657388442405,1.492947804732481,0
427,1.24994804154258,1.2788856262896688,1.2562639954007957,1.2441727110485354,0
428,0.7435959614700973,0.8198797058510608,0.783571873875186,0.8101464159371349,0
429,0.06659830214531479,0.17045447023897148,0.15007538568675813,0.14522759681541925,0
430,-0.45664164691704917,-0.31463053305758765,-0.3333104652436398,-0.4226157605604212,0
431,-0.6471888428312293,-0.678144673540127,-0.7288407826967676,-0.743414479451644,0
432,-0.8373859631442788,-0.7538006301288487,-0.7622577694154581,-0.8172432115520434,0
433,-0.6210648152158798,-0.6930731932670849,-0.6527807133570787,-0.7536217282848889,0
434,-0.35649745418850026,-0.3407207794095226,-0.3715905748869962,-0.3722040415964592,0
435,-0.10351410666808092,-0.13601945543732272,-0.1093997258847147,-0.13663530579570965,0
436,0.15828011924270918,0.1319447533997081,0.13921119135080218,0.15496931849994994,0
437,0.30942322315247156,0.31013560671559226,0.262995531290756,0.2305435034450362,0
438,0.42903803263750506,0.3243383350352334,0.24452364239223762,0.25299647273357884,0
439,0.35167119448138984,0.3137438731384835,0.3384144224684407,0.334472745271015,0
440,0.18288740029158215,0.18310983349321702,0.22960847587025524,0.16090968025812788,0
441,0.07457509629778686,0.015005782299676716,-0.0873952618981769,0.04675036447979148,0
442,-0.08823976260366972,-0.06726329386070415,-0.028870625110132032,-0.030974618570867345,0
443,-0.1718098883426067,-0.13210794600790632,-0.183049077402412,-0.14136663380237474,0
444,-0.0926982606249394,-0.16694273769140688,-0.062277187872399956,-0.10403775037290662,0
445,-0.04619546830876677,-0.04923196151668666,-0.14782229596023705,-0.10784026988597561,0
446,-0.04538173888920144,-0.020233574114962592,-0.06477457285958824,-0.10350965956118592,0
447,-0.0020111306622456176,-0.05430930341792463,0.05804910476618151,0.09477992884791762,0
448,0.06571765939450143,0.02165429179165669,0.08193368150650548,-0.032763248911732476,0
449,0.05734997865151922,-0.03862141913937549,0.019342974036263158,0.08559094210065962,0
450,0.015807764725967673,-0.011948036311729752,0.06848076237485279,0.13135925148963315,0
451,-0.0033891027945979584,-0.022562007014241704,0.011932818669345894,-0.06937216222563886,0
452,0.02551119143735006,-0.019040583807369317,0.030143226312873757,0.04071312506215109,0
453,0.0298511797903688,0.058782419610532495,-0.034958450708511744,-0.004618762404690271,0
454,-0.04150238068983764,-0.0063343289749563285,-0.015477643915213071,0.03737948384161098,0
455,-0.020678344126777597,-0.0027213723480480137,-0.01951511475301272,0.0218182034213127,0
456,-0.031440697636667146,0.010254256055777955,-0.030792457757721686,0.06593877899931876,0
457,-0.003497417734069358,0.014200888716851915,0.014484121515544264,-0.0018303981880474687,0
458,0.017408284829081674,-0.05432481783812532,0.017677783839116862,0.005909409813332502,0
459,0.01905096294607438,-0.02026227465598599,0.023806889941922642,0.03921660512726727,0
460,0.0008779654869351182,-0.01857978592047307,-0.0009759920484682355,0.0061364146419246824,0
461,0.06522375922285822,-0.009453407215239242,0.16959106967342313,0.005878138666600195,0
462,0.023296432735389297,0.07841512776503749,0.08216796873235294,-0.01794925584725124,0
463,-0.1314134801199843,0.0021389432907010456,0.06258208720732553,-0.01419293608636598,0
464,-0.006500092528854364,0.05828557450337122,0.008870509137248827,-0.04904676664343764,0
465,0.029339132783083744,0.014488643617100547,0.022464718051118496,-0.013656659699308855,0
466,0.0195427223468448,-0.04826587018586083,0.026014512752360157,0.03448629948265146,0
467,-0.006596906864332957,0.015062657445520756,-0.015107384478916228,0.020624596756568307,0
468,0.06436345420386391,0.04190037454439566,0.021947289941692556,0.023498309548570292,0
469,0.011002954627444073,0.02365587133520006,-0.024274614125757328,0.029193918939205588,0
470,0.07609073595406127,0.01843742692639516,0.15795644259535904,0.002694932101127176,0
471,-0.0347197894289932,0.057451368590826994,0.04766028193306646,0.008070636358953413,0
472,0.046240647022141174,-0.06837856565713313,0.01107704265036946,0.06448855350178322,0
473,0.06608713473077482,0.08376835369595467,0.030959992289717582,-0.05969861186168823,0
474,0.07796088630929186,-0.05121892405741356,-0.02969770240957678,-0.03501469100121712,0
475,-0.05487314806544137,-0.027616042569067103,0.041779109763503915,-0.08039048182410816,0
476,-0.03292175135927913,-0.03434249083262286,0.009349127859714111,-0.06476814975171144,0
477,-0.03881490679483588,0.007041945060668849,-0.0981118368932449,0.027947961785831126,0
478,-0.04113294710109297,0.10577020465497938,0.04630423351684254,-0.038814518553991956,0
479,0.048290829209673675,-0.016903179274170142,0.03721548769589138,-0.023287181772774578,0
480,0.01551421113459649,-0.06056614791802103,0.00973723320080896,-0.008297125887146654,0
481,0.04154019884510788,-0.037793222913083166,-0.03367409160412853,-0.03361770562307249,0
482,0.019915904827254693,0.04845027827681114,0.03961809195820371,-0.046995808791720085,0
483,0.018073736275755477,-0.015496193690190835,-0.016490155704253925,0.0351269706750247,0
484,0.08320082884904048,0.013397945448973042,0.025048919816606872,0.05937853327453524,0
485,0.07384062459074961,-0.007671390983535243,0.015092340595373196,0.03583949834860219,0
486,0.02036131474007809,-0.014471603818576295,-0.060653225330159766,0.05222939901899876,0
487,0.05165644031771028,0.053832281333625644,0.050815429506422864,0.022535321753969873,0
488,0.05073774888092815,0.0054519489477293575,-0.03108463799097537,0.034122127784203586,0
489,-0.047759424882420756,-0.019072986614341515,-0.030534244335438533,-0.02438500408113442,0
490,0.0030664030766661275,0.03759214495251846,-0.0030115598460902847,0.03874709846733298,0
491,-0.07978218658973299,0.0349470798385918,-0.11555285849007234,0.025702075045601822,0
492,0.036984146291482646,-0.08937504047104852,0.029122495841244614,-0.09793833478496888,0
493,0.03118644275159038,0.05346202880211895,-0.07339225895649613,-0.0006327081637093983,0
494,-0.04541897436566863,0.010972600523947357,0.009266623294265296,0.061794773661114556,0
495,-0.06321512017900158,-0.018352656832344248,0.0020642507347993395,-0.11183366219069786,0
496,0.05085580355032486,-0.0796382489224945,-0.002259921513925495,0.07931613515185489,0
497,0.030454853656366708,-0.07795840143996613,-0.05262593298823779,-0.033764076761131155,0
498,0.0036826304229066486,-0.011852378194088914,0.01330838725779317,0.03505527343721844,0
499,0.04287680852995781,0.018613942589468864,-0.03585634485959013,-0.08878766322336748,0
500,0.1267880961648068,0.16504478145501514,0.15836757022234393,-0.006270840151688939,0
501,0.2148463985722747,0.20627604755057946,0.28387537303220917,0.10114630992655785,0
502,0.4428857487718645,0.49934373212918476,0.5232143309186029,0.5399147304634243,0
503,0.8600742348465673,0.920588540939628,0.9181729352625839,0.966021659205951,0
504,1.487138153889941,1.541096882732826,1.588054242939505,1.4950298948565837,0
505,2.36574878925387,2.319559657462979,2.251309295682919,2.2396164171829995,0
506,3.2835352540752503,3.317159166536809,3.244331729156755,3.3163639257370687,0
507,4.308962465515792,4.425903556873993,4.314199672433507,4.249823136507426,0
508,5.413447312756751,5.471204306964788,5.416135089924562,5.384685931124161,0
509,6.140092615836633,6.31564610306326,6.301763315799962,6.24214486110983,0
510,6.83954168429768,6.85169928072464,6.883296000726352,6.888912348413541,0
511,7.050348823394065,6.935672466631087,6.995809753053502,6.813875696698613,0
512,6.39577373680711,6.412607285992639,6.380785044251821,6.352210052605388,0
513,5.312679208603575,5.241279641285045,5.169448090136405,5.1688625624367335,0
514,3.730725997704168,3.7156841863431738,3.7056533105871243,3.8043720767944467,0
515,1.9010388973331112,1.9586899377547442,1.986553076485089,1.9544096589639544,0
516,0.13392364965543802,0.03325165076657935,0.21011321880852493,0.05081554020074154,0
517,-1.412618351573868,-1.4907712873029992,-1.541426958430865,-1.4854270392172289,0
518,-2.6011789284782645,-2.55778509347977,-2.6426598633949214,-2.583851921057971,0
519,-2.9409220152108566,-3.0495300992634378,-3.020914539910367,-2.988419397288867,0
520,-2.796910473433769,-2.8253321142343086,-2.8738856805770006,-2.7733686927667427,0
521,-2.129154444517042,-2.0966730726617238,-2.0922200235890633,-2.1879533197432215,0
522,-1.2050944990540948,-1.2537121619234204,-1.1468709052893324,-1.1718546163854673,0
523,-0.01613953463362748,-0.03392403142823977,-0.06355589916673833,-0.08401004653403107,0
524,0.8926119874763585,0.8775304908032769,0.9964865739611093,0.9214921538413956,0
525,1.487057199213686,1.4634532877737383,1.5569404435488712,1.3984438780230473,0
526,1.4712850911646242,1.563455749380204,1.5395445814299393,1.5562366314647422,0
527,1.3520127314896973,1.3894361162516302,1.29421670690639,1.3408784288547895,0
528,0.8921139246536425,0.9784302385019349,0.9268036348861961,0.8258056483334367,0
529,0.3385486497746298,0.34309177692258697,0.3355036188606029,0.3265784276215914,0
530,-0.28876017258384507,-0.20355966762524808,-0.2642628653538467,-0.2913458060592196,0
531,-0.7215221691132406,-0.6455112320962041,-0.7632983972917284,-0.6559273334547234,0
532,-0.7743281349795605,-0.6922971473704908,-0.9012045321661682,-0.7967219310496043,0
533,-0.7636813761368964,-0.7589741536853467,-0.6711404551792892,-0.7042157135963353,0
534,-0.5108123766083102,-0.4404243816937475,-0.4327659074376557,-0.42372859914818556,0
535,-0.2617720800756392,-0.12526488214568984,-0.1568425153587248,-0.23071703052464088,0
536,0.15065856288909563,0.050415097481190996,0.03453079299878999,0.07041933403089003,0
537,0.3321849217168724,0.3059582445589516,0.23894605701652366,0.28332591346596,0
538,0.37423073316492206,0.32106432261122864,0.341483833357828,0.3375506456089029,0
539,0.31703926053230436,0.318338651579297,0.31197320276797763,0.29702366901033983,0
540,0.17879764358336234,0.2577002168289258,0.14971545979396925,0.2594578039872939,0
541,0.047649482392277384,0.12926233550254385,0.08063930971669785,0.08762425590971057,0
542,-0.027359838014970446,0.008117236669353135,-0.048645758824712566,-0.10352483141569249,0
543,-0.06097811628723157,-0.05107084300265996,-0.08833784351770065,-0.08913563436417751,0
544,-0.0875031712942047,-0.04783952630946002,-0.1463015142881161,0.032344810287368936,0
545,-0.034546154449674266,-0.08715739712825751,-0.14691241138890976,-0.0730484023884418,0
546,-0.07434224686258037,-0.04729637457965584,-0.0849929602755214,-0.08637888432969415,0
547,0.004245069589715985,-0.09465877117464092,0.0477006590666133,-0.08513400458010317,0
548,0.013161876148609938,0.08874610401965355,0.015681971105846064,-0.06796822153426331,0
549,0.03351244264906481,0.002955949801729408,-0.048173726010251376,-0.07611425749502937,1
550,0.06696332518225034,0.0701125452216981,0.07343801201727146,0.02238839796497909,1
551,0.0807010588667339,-0.007065948960121186,0.07368463913118221,-0.06796734115672584,1
552,-0.02591631866235556,0.009981626900953989,0.023932152064415256,-0.018651419419461628,1
553,-0.10964449194119791,-0.013950997143702085,0.009235094649966828,-0.0856212305006995,1
554,0.08199337791279096,0.053336697853850146,0.018865863932383417,-0.06155366221961761,1
555,-0.010830410234161512,-0.0774767638579936,-0.03822098539933689,0.017211750618344533,1
556,0.11262005001689171,-0.02810212306077136,0.052712250748169154,-0.016982996117606328,1
557,-0.08108490675126948,0.0014058608222864747,-0.04558681545326179,-0.0015742846108132889,1
558,0.0020818681748969456,0.052610106703940875,0.06152236697212215,0.15209318002537753,1
559,0.048121168122833666,0.021719830640123457,-0.02973935284096849,0.004565063920466776,1
560,0.0018700107208711979,-0.04670563798922124,-0.10348009069202205,0.00025357562930279393,1
561,-0.05613691675112027,-0.020452867972462638,0.00840935448363306,0.07485134129610305,1
562,-0.11010498534152921,-0.018386698592636922,0.03353955210712386,-0.05517942726396747,1
563,-0.010386217037020232,-0.03531234110836426,0.03489486873543073,-0.007045348470526039,1
564,0.01761968399220933,-0.008130495761694053,0.044786734761273955,0.04028163174004378,1
565,-0.06057995384923935,0.06660271334345971,0.026805758259813472,-8.813502804316754e-05,1
566,-0.07279648166570395,-0.04951345956675903,-0.06063036210112126,-0.045048628252304095,1
567,-0.013597843097665756,0.019122090484801287,0.004643314151296783,-0.03971134509684058,1
568,0.03886803845484933,-0.08787885598806924,0.03250821602218992,0.04116215238296526,1
569,0.032346850440307495,0.03765809170734819,0.03159478447914975,-0.059399597394953464,1
570,0.010998462478462524,-0.012657712787350306,-0.017195322191797976,-0.0056683415427828425,1
571,-0.06181739564238901,-0.016657805648460925,0.10615116102001843,0.047525498010252104,1
572,0.008124614436694658,-0.007842956859000648,-0.03419299485316288,-0.06539449043438589,1
573,0.0169400334965542,-0.017600863313453525,0.043341667136563566,0.02847515553897553,1
574,-0.06496004189539753,-0.020571961501219604,-0.0161383001425925,0.024667567156031207,1
575,0.07087077445264191,0.053104044497188405,0.02860237705872967,0.0486417670044737,1
576,-0.04292586287173137,0.04013395539530765,0.044595902232494926,0.04937842584440588,1
577,0.006489152426356201,-0.01313474668020863,0.04255975459061103,-0.04074533216884891,1
578,0.06366522239886654,-0.02889896289621072,0.004279732533118272,-0.013816810677232975,1
579,0.037956458215150944,0.06644559359754025,-0.03714993071558702,0.0523507165962371,1
580,-0.04569197353648676,0.05887061266254373,0.09032790091463073,-0.003732136706190471,1
581,-0.10942375827321583,0.035793524260945175,-0.03461897294326557,-0.06300337268225185,1
582,0.008267688379299,-0.010983947877741923,0.08663659370943307,-0.010571594179677143,1
583,-0.02733557205033232,-0.008989627654969103,0.044316258792496344,-0.07575895704656073,1
584,0.014919974903130432,0.029267428880968442,0.024353060479739487,-0.04929444419746109,1
585,-0.015114644801948466,0.03599880112193308,-0.034031430337165,-0.00241233577807198,1
586,0.01411913387876891,-0.016050357424099264,-0.007503399729795409,0.01709470778433923,1
587,0.06642211061393118,0.00040096095648012715,-0.046052976823481064,0.008236644288481296,1
588,0.038676751885111806,0.07365324513755166,0.03389586544725133,-0.007383064744111488,1
589,0.013052896490698494,-0.0810815415202961,-0.030684224410893794,-0.0007321574153734044,1
590,0.05878677804465253,-0.058187993773662294,0.06627577933695307,-0.09798327973843231,1
591,-0.03385852038944516,0.07768672328526181,-0.013785132172316732,-0.052336230833538576,1
592,0.06856953985640225,0.00026926758712509405,0.09063880911730735,0.04108121203170335,1
593,0.05210571213041369,-0.06020314024095859,-0.05599086004871032,-0.04036910897884211,1
594,0.03329636951522334,-0.07002740728522222,-0.04621075803638949,0.04134189387153944,1
595,-0.06501295757251031,0.04791071222610114,0.005927182132976959,0.07050964702008221,1
596,0.03692021718762901,0.06872223375069818,0.039610842370661585,0.061888399481673594,1
597,-0.061274418151350464,-0.027716841781448825,0.014341040830730695,0.07466911880368543,1
598,-0.0646938130243251,-0.06326534739620295,-0.01435933235650717,0.03670318386353308,1
599,0.03334379716331843,0.027122144320887644,0.030262780728326336,0.0813865049353742,0
600,0.02726808877087933,-0.02929207046989242,0.07968692864558205,0.11721714980687528,0
601,0.3563070423079021,0.09556439400918441,0.17542362113917595,0.13163629468578286,0
602,0.41082934117026926,0.4556100515145286,0.40232916619825276,0.4302886418923696,0
603,0.8625995869154425,0.719838021735171,0.7407513672080063,0.7212780330959393,0
604,1.357377175489023,1.2612772368472571,1.3386341659871848,1.411187976004344,0
605,2.1525696953553703,2.0763736384402187,2.0982806651113592,2.0646804136998047,0
606,3.018118800946954,3.086372980451335,3.112079408707053,3.055518048892488,0
607,4.097497326074696,4.10833071855565,4.053234364979973,4.101520004871734,0
608,5.155570761203586,5.176737217942933,5.080362083749601,5.2990543799328185,0
609,6.199153912991662,6.113667832566011,6.136292230922969,6.097422266013891,0
610,6.728380765177128,6.7260662066980625,6.765314651727229,6.78810323069862,0
611,6.962487410093714,6.993471046512022,6.95294471316984,7.084594446432031,0
612,6.53881099623652,6.590311741588153,6.59099696496916,6.523936197225543,0
613,5.59098911596979,5.539068872426452,5.565678730446665,5.591544632525821,0
614,4.169273824411972,4.10273149138475,4.191618984027213,4.229453596363258,0
615,2.4051713408729856,2.440118442252212,2.4573919981749754,2.3708376894055236,0
616,0.5565781642310211,0.5003557596289642,0.5251754103485148,0.517592264141275,0
617,-1.1464426066095272,-1.1821427623736347,-1.1677088906138284,-1.1504487888483188,0
618,-2.2864001856789056,-2.3486966741161184,-2.3719462087277834,-2.3609933498026536,0
619,-2.97740505411541,-2.9561829394001773,-2.95023912980539,-2.901170407677983,0
620,-2.941213988499949,-2.868315426527745,-3.0006886458997837,-2.8890433987226816,0
621,-2.2857349725694407,-2.325453383471851,-2.3271929662907365,-2.4196055118220188,0
622,-1.4737079602450898,-1.3815612549309768,-1.5091830527316106,-1.384786111111454,0
623,-0.3253121405264142,-0.2811725037520565,-0.3865368106410469,-0.3238064138228114,0
624,0.7033338864950479,0.641036278293031,0.690399877634517,0.6436576778514351,0
625,1.4641953141899178,1.380354004729605,1.4391112666416248,1.4153260000782157,0
626,1.5813965170041406,1.6800345779960728,1.6120805426709985,1.5981258664359084,0
627,1.4673438990347103,1.4336226207283727,1.495255000634244,1.3632136211896928,0
628,0.9960244949942173,0.9905983243870176,1.0635880206000217,0.9508922557382227,0
629,0.4398515556397085,0.48533022226196687,0.4472532827989046,0.4230696808011693,0
630,-0.15810991016376055,-0.1561185571555864,-0.11082590766876907,-0.20684507643893688,0
631,-0.5221415828935517,-0.5506889549467526,-0.559920761520066,-0.6268542081199437,0
632,-0.7854446080755292,-0.7266100455418435,-0.7715360517588353,-0.7538041324093651,0
633,-0.7077467319830456,-0.7803602382725815,-0.693902596124814,-0.7129715142773039,0
634,-0.46033790219166965,-0.5230386063035516,-0.4777921643876971,-0.4891342671602896,0
635,-0.3150886686735751,-0.25589092144962444,-0.3116586506796515,-0.20602018429727967,0
636,0.03129936025470684,-0.03492345967003972,0.0420708816738309,0.09915416844340655,0
637,0.12304278300040031,0.2698620311816839,0.16020333101634926,0.1972918754202564,0
638,0.2658142271847904,0.28958676301916225,0.3545216930412806,0.29994028403939405,0
639,0.30735917336385427,0.31155579851113435,0.36214279675129735,0.275740772476701,0
640,0.21501528621307656,0.22647656234924918,0.2016341307531853,0.16714077925746323,0
641,0.08219554093340346,0.16068976007562746,0.09891227281120427,0.13670751766207756,0
642,-0.019809059923502296,-0.01822313817378332,-0.021330003338586406,0.04701288400888473,0
643,-0.12560781785345942,0.006301772465592825,-0.03608166386239946,-0.07937685219405133,0
644,-0.16794910706042107,-0.10338132095929775,-0.1854672952057158,-0.13618913385827075,0
645,-0.09639872812969529,-0.03379293240429995,-0.18687825433528538,-0.020532203232495452,0
646,-0.08722758923174365,-0.04445114930368195,-0.14670072986146188,-0.056883698132597915,0
647,-0.008081593086292607,-0.030857672684533367,0.018924462910990113,-0.024902728854609535,0
648,-0.05750329544982723,-0.030500658757923974,0.10699983141404064,0.01688788423010428,0
649,-0.04855872720057923,0.03676047487581457,-0.011671017547130975,-0.05107649228815524,0
650,0.030147021838348807,0.08088858559397095,-0.025238504864576107,0.11158090861683133,0
651,0.07213659833753285,0.08208064728812187,-0.002890801122285902,0.05564733054407872,0
652,-0.015303820961423893,-0.03444150184758856,0.03282678844082396,0.07872651705004453,0
653,-0.012979656020178882,-0.026929246117012882,-0.044796147656178904,0.02296388229244368,0
654,-0.05826918124489981,-0.007125885967069442,-0.096872738463384,-0.033285363668823245,0
655,0.038990198409660774,0.04677198827474546,-0.03558548430289071,0.014920529702531585,0
656,-0.014084181363811024,0.1269005946299139,-0.039850199671903556,0.04656577527866413,0
657,-0.009674190130130874,0.027037884885289628,-0.05165829108531088,-0.04707135922853941,0
658,0.03800896627972078,0.026130883949983138,-0.06347640164364425,-0.015022442385840204,0
659,-0.02402343976133021,-0.03456632328153943,-0.005407259470544306,-0.10957148019603154,0
660,0.007473052767099995,-0.011811359258412051,-0.016135687038902183,-0.017555324476785854,0
661,-0.014299035791473106,-0.007400518141905162,-0.05700261667029852,0.09403714212225667,0
662,-0.05711466456746264,0.04217415306467648,0.10711342867468701,0.03764055059367138,0
663,0.014443455126478912,-0.029773032734493814,0.03426851740794301,0.003308196360374831,0
664,0.05363791543006703,0.03407027147894315,-0.09599781934558718,0.06437661400840863,0
665,-0.10228570341434516,0.03898632271485338,0.07195914680819293,0.0645091112173324,0
666,0.05498583986228171,-0.016260101194419386,0.049540866655260585,-0.004955384294418091,0
667,-0.06784292874958033,0.05681119904820394,-0.04798944646991496,-0.021947545573783322,0
668,-0.0031407622668566566,0.017655050830799997,0.06619782143842722,0.007418361748365009,0
669,0.044514836332974025,-0.018427505560763644,0.03206089764768295,0.007875237195236367,0
670,0.027270066475536193,0.061661585832704015,-0.0452394252363083,-0.0059024183972479155,0
671,0.0864954522493793,-0.024459454256867397,0.047138430010528365,-0.0002284929850265936,0
672,0.02005698118620265,-0.004700534826907513,0.0205084113742288,-0.0397340456493682,0
673,0.020828888954099047,-0.019339971807172042,0.022003564720725954,-0.04083619698432091,0
674,-0.048793992452854394,0.06556758852338525,0.039963333464043536,-0.05992651731487306,0
675,0.012738668272246356,-7.451001925084581e-05,-0.07372478768112284,-0.003710525011115975,0
676,-0.006233949624677316,-0.06070358104841976,-0.056486931683774506,0.027919787756306085,0
677,-0.07491280907371914,-0.0782555998031902,0.0008071603193011755,0.02057288699452106,0
678,0.010007030837062923,-0.06114112560158609,0.05738343504406353,-0.07538586523352701,0
679,0.014925253169947823,-0.005791995319871394,-0.039491846296802524,0.03492893643607531,0
680,0.05216916666631123,-0.07213952312478027,0.0071705563210327184,0.0016196411085414753,0
681,-0.06504947460816336,0.05774984120179961,-0.019311840346056073,0.06210989224504788,0
682,0.019396528803293046,-0.01634702395784462,0.03876134991938834,-0.03951047508182853,0
683,0.08160059612995191,0.10089101970254949,-0.05949004029339059,-0.04784771950907158,0
684,0.07564265478770058,-0.09197195096645026,0.01588759825234247,0.05431735536085115,0
685,-0.05081299450855825,-0.022743640701983012,-0.016001545864405983,-0.06982603675571435,0
686,-0.015784468359053058,0.037463016252947665,-0.0014647529816213542,0.07097406239334053,0
687,0.02814039433008241,0.0461076586836869,0.012917452831896556,-0.10031070134968298,0
688,0.030847767976337013,-0.018375143003139447,0.0035825128859226737,-0.018229625499131187,0
689,-0.04011588173658562,0.07223510963991144,0.04867721253916068,-0.07855734526618215,0
690,0.010195605109316223,0.0056907251920402455,0.06697292278234823,0.00436384276181394,0
691,0.01082672083376023,-0.024285817663164195,0.09406263125168268,-0.06005918497197664,0
692,-0.003128085592262031,0.03357765033483175,-0.02283836672297612,-0.06904061481635403,0
693,0.07184865726635088,-0.032255458957337814,0.0024446949442229137,0.003188947455531215,0
694,0.018015100270398272,0.0013907136860044577,-0.048247606202725536,-0.11501164546605987,0
695,-0.06487762772348515,-0.08643200426348666,-0.010329391738950642,0.015361908122368912,0
696,-0.017889314293730443,0.14275907679513444,0.0027048026548472325,0.07918113691901979,0
697,-0.025079238204303207,-0.03481692363931018,-0.05745237141619256,-0.07063317527216655,0
698,0.011498889029225821,0.020246628072972905,0.005295065172884776,0.007247302807235542,0
699,0.05930777059995695,0.05420125884327146,0.0041019063310592015,0.06900555789312816,0
700,0.10993376969160262,0.04875888862088524,0.0005578297756607051,0.10412190798543478,0
701,0.13552183860766812,0.13921071324901133,0.11852319503643893,0.22753912992978062,0
702,0.3692193708693771,0.3509231866685843,0.266204423982663,0.29982144620265627,0
703,0.5949914614031558,0.7220884905972539,0.7572591240751807,0.6437402867421482,0
704,1.2116887366943379,1.1725850712849926,1.2387932059441247,1.1706795246698962,0
705,1.9015487608050075,1.950819869675653,1.7766087335543486,1.8549767314613568,0
706,2.8915396748582527,2.815031284912879,2.8608839584753833,2.852262581988579,0
707,3.926479193074453,3.78555224273983,3.8666942404091236,3.8942054524989724,0
708,4.941207219459627,4.922222382130839,4.907679419848326,4.973893497749151,0
709,5.892313463150881,5.921985157770875,5.995609378541503,5.910379875751812,0
710,6.680196543397769,6.657378214621343,6.664586117853453,6.58202472671196,0
711,6.935498657135203,6.990185980840102,7.019655782927016,6.94348613586693,0
712,6.743466181208498,6.642775382350731,6.723366218732037,6.748305177725638,0
713,5.887923783823697,5.838653858480502,5.889706959344196,5.807410945486885,0
714,4.506189232881618,4.572173294762183,4.483807339072356,4.500218287070995,0
715,2.8413788429370173,2.8556436394838527,2.862769725859015,2.9008691708288517,0
716,1.0415785680259901,0.9448351171489469,0.9451295398917126,1.0036400170591318,0
717,-0.7820840918761881,-0.7882756393117204,-0.8985961735206275,-0.8598251684979449,0
718,-2.1324570277683366,-2.1745887422441146,-2.150343576672006,-2.194505576630408,0
719,-2.930414737409797,-2.8887186087328667,-2.9104957594896415,-2.9387026495209057,0
720,-2.9669444977128436,-2.9145520503419684,-2.934733275587888,-3.02952151071612,0
721,-2.566018171858134,-2.4696019949465953,-2.470251886972779,-2.52853978777433,0
722,-1.7703610561754068,-1.699806472413926,-1.679870559821674,-1.6016147578662596,0
723,-0.6792350865731396,-0.6133882277820706,-0.6774697531774807,-0.528508353532111,0
724,0.5384858208109012,0.4673691180068638,0.439746198992205,0.48143920126427353,0
725,1.266771496408239,1.3026410736414102,1.2101128555727934,1.1594396271367151,0
726,1.5413216664021814,1.4465383863195656,1.6033466835798589,1.5673727500062224,0
727,1.4772716094505751,1.5232834461685643,1.5462179650977848,1.4704603528863107,0
728,1.0965350262608995,1.1593370501829525,1.1245503357067381,1.0885984585980846,0
729,0.564090864976715,0.4913869420147813,0.4916509322600371,0.5306353614138642,0
730,-0.05885486152391424,-0.018568195469095394,0.07252311519958034,-0.0717255507977314,0
731,-0.4689187943963338,-0.5043760857283697,-0.5592754504132146,-0.4497017083481274,0
732,-0.7132704546344647,-0.7911124162663598,-0.6613849306137435,-0.8134787595808323,0
733,-0.738139870144556,-0.8217520783686036,-0.7243582808040557,-0.7878102942147621,0
734,-0.5592484170099514,-0.640207280210635,-0.5970171953216838,-0.5384952143442883,0
735,-0.29107537502742686,-0.25232768910407044,-0.3636747471040377,-0.2782802032350326,0
736,0.029672559427254032,0.028295157132978636,0.005127826715483445,-0.09394462666971641,0
737,0.17131171881181073,0.14873359436356215,0.15266734393945133,0.17250458443984534,0
738,0.35756720188628716,0.3319607450720432,0.255811087468362,0.3296483899606328,0
739,0.3249006874094067,0.3564716576921467,0.4029788947867242,0.28590069739964397,0
740,0.3118657428327558,0.28286961115655834,0.249170339537894,0.31661251645055843,0
741,0.056688016744539105,0.16207017805864993,0.15218847154632792,0.15748677744131834,0
742,-0.00589712908042467,0.0908213934956223,0.07390313536293326,-0.0308626776649386,0
743,-0.03811930428278808,-0.08526330064428167,-0.07197009003069849,-0.012797929002641956,0
744,-0.026021083783422688,-0.046009760025738394,-0.1491651857094664,-0.12014705262258107,0
745,-0.10082041030749839,-0.12908630306615723,-0.05601874092271137,-0.1133712339772118,0
746,-0.012185610702325544,-0.07025119579313242,-0.09659313591504387,-0.08053449617750703,0
747,-0.0068947868432804316,-0.09764220506248439,-0.0038778375110999352,-0.007777083769529597,0
748,0.08513775878741499,-0.05627846664030895,-0.007985684858640174,-0.08025929449438576,0
749,-0.0021862216883802403,0.05872795505047529,-0.01979621801584328,0.10962804809614453,0
750,-0.01354940631121946,0.021786674542632806,-0.0630826241468091,0.13903935507717516,0
751,0.05579349431562303,0.03763129793708961,-0.03239013731693079,0.11321848957729529,0
752,0.025134734164210734,-0.015923943149856134,0.02819087564292043,-0.043574732942354005,0
753,0.0986872475049193,0.05193373992698752,0.07283452952485948,0.09674753585512327,0
754,-0.0579214858063391,-0.0687819804076956,-0.0680156152220654,-0.06117026451345405,0
755,-0.046983186418147194,-0.036931027546109135,0.024012390597767806,0.014384531840385632,0
756,0.004947592314727293,0.060753380408456,-0.08897233861828022,0.014453286275930712,0
757,-0.1552452702938499,0.025355931880954887,-0.04499125886463557,-0.02826474539874941,0
758,-0.032278098281862226,0.0770386012942831,0.017692959638829837,-0.019708633217127174,0
759,0.10468790214553544,-0.08300667662725955,-0.02435741277381177,-0.1117059511576617,0
760,-0.02309419934245587,0.00889334322099784,0.06709554285939272,-0.04828852881930607,0
761,0.002042248114179564,0.13520736698516594,0.02100169283031058,0.0358880739274148,0
762,-0.03351111713271054,0.06729365729743318,0.03684747360687239,-0.005170164402987247,0
763,-0.07238839911048274,-0.0015889302962182592,0.049389557973921576,0.030160949321530225,0
764,0.09672486872727624,0.05948628586098547,-0.06758548680942382,0.050268733102373134,0
765,-0.009553480728451486,-0.03278793971772198,0.03816488177816304,0.012599710800253662,0
766,0.008187174286331216,0.019741432898271582,0.009094960402457691,-0.08540949823621413,0
767,-0.046022204395302455,0.0597117810156926,0.05151831693602656,0.04685815337141701,0
768,0.03631389869890929,0.015264352729348887,0.006050142515305691,0.03009776246310022,0
769,0.03943689370018992,-0.0023632304783688515,-0.1326174172469862,0.03266530283946039,0
770,0.03564091743485257,0.02278785413899728,0.04492500365728007,-0.03280516707815554,0
771,-0.013387489393730054,-0.04111071923158275,0.028280942668722865,0.05959328701596127,0
772,-0.018135892753230982,0.00864029152407124,-0.016353018327351723,-0.018937768106465695,0
773,0.05513794107433029,0.06080023852492769,0.004826172325160517,0.08642378849037327,0
774,0.0028189799483517588,0.04343701523825758,-0.021061105068969473,-0.048010576962990964,0
775,-0.027781966449036365,-0.055362073389811986,-0.05625689705342253,0.03264320781294973,0
776,0.07067193196350931,0.028385427817011342,0.002196760213825581,0.017714550584595055,0
777,0.004619529165918409,0.02792400172123484,-0.024986091957064204,-0.057300651441834105,0
778,0.08835308976025769,-0.031946833230996056,-0.030021579051292047,-0.054751116765396866,0
779,0.026556104198646704,-0.014098110954698857,0.05450931270586042,-0.014135256510037126,0
780,0.008958217909250013,0.036194837066836065,-0.024189508693301363,0.020744267212197107,0
781,-0.06085677248033938,-0.14109615500722422,0.031247418219896916,0.05436391246643108,0
782,0.022764790659858234,0.039161162530772814,0.008432913221961954,0.00448417879397533,0
783,0.06700369319020318,-0.03001538953696763,-0.025488586559239735,0.06670628012408726,0
784,0.0874931926229362,-0.04684236547934991,0.011491908201842132,0.004878195582863682,0
785,0.031203860904967854,0.07087888331151117,-0.015701841373146938,-0.03890460959502018,0
786,-0.015416709690680631,-0.03519998241050791,0.0023798088781042644,0.06475728353441551,0
787,-0.08566474590029373,-0.007418952822083852,-0.06849884562080051,0.026309410599297357,0
788,0.07096432112732874,-0.008796285830926417,-0.029878681615697247,0.006960389008024189,0
789,-0.03022250061770843,-0.050268340148021964,0.023749999694550907,-0.028212693003742687,0
790,0.010460335807860079,0.04573776297930237,-0.022517361037306904,0.012571478953364799,0
791,-0.014718273400084083,0.0719079681348423,0.013955831340456831,0.08490214466304113,0
792,-0.01736156312955681,0.04493274090503676,0.037347894109583904,0.034232296439597215,0
793,0.07657334916066644,-0.054331245157456964,-0.06911849243710522,0.014981074687349525,0
794,0.009004091356361306,-0.02801416719508461,-0.09007104463663318,0.08372236574213596,0
795,-0.025567348809748817,-0.04360367765367523,0.06765891546184923,0.06610814630135155,0
796,-0.06797153004275087,0.10740325189095042,-0.010280694821042406,0.08748387773938333,0
797,-0.019497872239135607,0.02510513601372824,0.011615246779025456,-0.05437455319790638,0
798,0.042445164446148015,-0.11639972233989491,-0.08855270111907255,0.03242105809060422,0
799,0.004132149742813415,0.020747583190914805,0.13595518879547977,-0.0133493063617095,0
800,0.051237253546949454,0.11226205255639018,-0.003437112496051803,0.10019784484177335,0
801,0.10457971607859162,0.07859729405015614,0.1289653713933148,0.10312881725953203,0
802,0.2693404911588196,0.28273995753273085,0.27706093304305934,0.24367407176076655,0
803,0.5467317797371726,0.600093074153612,0.5224999252339982,0.6170775517991384,0
804,1.0258130637873861,1.115602402419539,1.0454464716105227,1.0603480548504807,0
805,1.7002112231595354,1.7265945781936065,1.811691043743753,1.6938650386811898,0
806,2.6141781720912407,2.5909105056142137,2.4337222089883523,2.5903577285778208,0
807,3.637177145619297,3.670349883655327,3.6045593307667607,3.5848563043804673,0
808,4.740208141647521,4.666641969969379,4.743891856465403,4.758571111411087,0
809,5.620928284757577,5.657218826176748,5.677272839985161,5.78382347866176,0
810,6.496068295017592,6.599390488359318,6.493440558065174,6.4400908375529395,0
811,7.022273550687372,6.9173253648329585,6.940517031958608,6.9484723637601284,0
812,6.800724184805696,6.848870702063107,6.878982142598632,6.922169010871911,0
813,6.10104338372587,6.112942738141261,6.062647269316825,6.092396020735926,0
814,4.868460516036236,4.853172947937535,4.8083987830510555,4.834728758704791,0
815,3.247672701864033,3.203959736924954,3.2391116683272,3.2589380464820117,0
816,1.3620327300804245,1.3444625990105317,1.4595372046383486,1.4053372559289161,0
817,-0.3420758946748723,-0.36263567149752496,-0.2450545648233123,-0.45761710162084285,0
818,-1.9775637111967248,-1.8655614192258456,-1.8403856449324918,-1.9374354114015793,0
819,-2.7904869401804264,-2.8226826708478554,-2.7832051400896094,-2.7803407830908062,0
820,-2.9387426620076926,-3.0408044771701834,-2.941913730321498,-3.0224367263239293,0
821,-2.636482046581001,-2.622078437653366,-2.663468828706857,-2.588980265726837,0
822,-1.9062545217854832,-1.8995342797042456,-1.8541320546050784,-1.887143716196123,0
823,-0.906049222859336,-0.8882695102395678,-0.7967289425320984,-0.8828587214856607,0
824,0.23529148646421452,0.18673878192151613,0.28311051243053786,0.2569657288764532,0
825,1.1874167338173178,1.1041203303982243,1.1584657404409393,1.1990818019594376,0
826,1.504757896208953,1.513187626758863,1.5858118920837367,1.5313836282185043,0
827,1.5848559707462546,1.5770037201129596,1.5745515813014956,1.545208683055931,0
828,1.3371881443964049,1.2599412477774803,1.2332588614685474,1.2520491839574794,0
829,0.6308012223774128,0.6771497429734301,0.7108400193853982,0.6787103874446709,0
830,0.03917814578747139,0.12327140465507892,0.1879689174075729,0.11628007114770778,0
831,-0.2955075076857835,-0.30727391345214483,-0.3730925829974476,-0.478883729840457,0
832,-0.6273732731078465,-0.6122708213581058,-0.75484865353403,-0.7677032170729433,0
833,-0.7313184993975985,-0.8353304944191956,-0.793769553825398,-0.8542279571824349,0
834,-0.6192826454927852,-0.6021969908470767,-0.710522407689303,-0.6370850337538068,0
835,-0.29726129164557935,-0.3442932613890602,-0.36971275333362197,-0.3416368224581634,0
836,-0.09201935434351112,0.045630073162889515,-0.17019573605967267,-0.08443398164165758,0
837,0.08598612011666716,0.24881262482389416,0.11768068012572427,0.131822190944314,0
838,0.2951641816973196,0.2592879170819982,0.23459568097519992,0.23514302110523097,0
839,0.30669365305425084,0.2920616662034681,0.21252559603713678,0.3206606730162302,0
840,0.2569135379326338,0.3475304366503195,0.34398710821030015,0.300649408506161,0
841,0.15535904188705846,0.14052751487363166,0.12962823832999282,0.11229539599247326,0
842,0.058241045855833506,0.131454336813158,0.0463998955818765,-0.013709111843716579,0
843,-0.03646355309894922,0.0028089086548744382,-0.04428013770197732,-0.01964453038475273,0
844,-0.15183051124936753,-0.2269087955840014,-0.04353216086173559,-0.15078813932058055,1
845,-0.23541478484314982,-0.060930403054048704,-0.08049016212930735,-0.09518474216813974,1
846,-0.126123152602036,-0.03630934634198043,-0.03474563519952415,-0.11947124469145409,1
847,0.009209138268492782,0.04251535945514082,-0.07162333481248942,-0.07595188239607562,1
848,-0.12976446352908247,-0.08832718326195234,0.052147721970764054,-0.09545999139976247,1
849,0.020910869795387508,-0.07453453661047976,-0.043697415655195956,-0.060547560890053365,1
850,-0.01943969692031501,0.08639918155836204,0.05150058330748285,0.12958857669996496,1
851,-0.07437638449895266,-0.010271087469959635,0.09369844866514075,0.0769046110886713,1
852,0.07671178753517698,-0.019018949213678003,0.14453654392588278,0.011069644150436354,1
853,0.06517664773130964,0.04656475945967278,-0.0071326960040270036,0.022387546907050963,1
854,0.021010280457745636,0.016494833755721052,0.0010757330218018658,-0.04913402825082889,1
855,0.011325863640248967,-0.041104912694599836,-0.10474027016454007,0.010609631738764015,1
856,-0.12586225800132328,-0.10122137551842245,-0.05732916539083665,-0.008522887322696491,1
857,-0.06703561020517632,-0.013370826448930435,0.06973758750083803,0.0020438841724507704,1
858,-0.008305135761294566,-0.06545596648229209,-0.05831961981279,0.009646284148485127,1
859,-0.03348099784254942,-0.03145952192752356,0.010007224370194965,0.0453652496477991,1
860,-0.035492650187390465,0.0029730616579338163,-0.03993940153241992,0.060056305866028455,1
861,-0.06088540955858237,0.039648160813805636,-0.022885315110189503,-0.030223765455852685,1
862,-0.016082203442388088,-0.02114050002536821,0.014996491166245518,-0.00397048523960658,1
863,-0.002239164009785187,-0.08390748897606055,-0.05092160901717693,0.012157476099759685,1
864,-0.17759630864797502,0.013700023444840658,0.060880554823786764,-0.021982020058765143,1
865,0.055862192708251865,0.02635340534871299,-0.03763827454373658,-0.013750473032315615,1
866,-0.06732752639215929,-0.01918945704120885,0.014539615231234829,-0.04568979876820741,1
867,-0.07856125534443721,-0.016415226194083987,-0.06070659201711455,0.08323619111752208,1
868,0.03304585674075666,-0.02045322037808837,-0.07116336774370584,-0.01310384659632314,1
869,0.049199506691267755,-0.004683411898433219,0.016864380550596886,-0.08746842340737533,1
870,0.05274288948688162,-0.016736063472691784,-0.010134957139977316,-0.013955645791413281,1
871,0.01896377535469073,0.0017497755445359743,0.020352422019064564,-0.010714534359241152,1
872,0.00039337164241119363,-0.032444880259557635,-0.050324558482682295,0.06190785278422578,1
873,0.05723577889501178,-0.04762699178772499,0.08824064623027339,0.04098497152533658,1
874,-0.03140287740275198,-0.07981964028140555,-0.0009106830662356511,0.0635502581628157,1
875,0.020839248519834177,0.037428897600645446,-0.014045755499298618,0.025702454619294202,1
876,-0.08100174893257765,-0.031893587121613554,-0.0223098058598333,-0.10357651507583808,1
877,-0.0007437258473851116,-0.04001848013875888,0.04960740065973284,-0.030632922701771342,1
878,0.02372447030940871,-0.006375541071635487,-0.09003753628358724,0.08619393289314847,1
879,0.03687461812523873,-0.048083024854408726,0.052572627474627834,0.0479633838136913,1
880,0.013815248741952446,-0.07736017827060311,0.03256140675106029,0.1045984706505533,1
881,-0.051746808922801514,0.05413231179562342,-0.07744479940030288,-0.05201874081967047,1
882,0.013860189063174792,0.03596004805235849,0.02111033254141835,0.06267373420560587,1
883,0.060942755372685196,0.01526552189811075,0.01436141076961309,0.0014950847572635134,1
884,-0.013513566600781858,-0.036259525283062345,-0.047809517936084706,0.03507911064975957,1
885,0.02022204049032674,-0.044091019233315064,-0.015878058755135593,0.09350016935862437,1
886,0.056429491290909586,0.01425097157148658,0.10489442602017074,-0.07524013714418956,1
887,0.13962609185511984,-0.08855331613699426,-0.05654977405486537,0.06860790768810945,1
888,0.03351975126248464,0.007758521841430888,-0.011545966116126107,-0.04634604128761142,1
889,-0.013794875602430541,0.0541905618605705,-0.03517943879396159,-0.04908612302658829,1
890,0.01843734240344991,0.004112826537481372,-0.019338818701753916,0.09955623728237212,1
891,-0.07168025324277569,0.004833559299370632,-0.020222487921365304,-0.03048789007881399,1
892,-0.08081681553086892,0.035454059868441946,-0.009733964407547138,-0.04805999106860956,1
893,-0.089048900435489,-0.049807261065126694,-0.006040992688828326,-0.04666250127632739,1
894,0.07168230677497014,0.08907167721330195,-0.08922967560281296,0.03764361964038746,0
895,-0.018013016268496232,-0.07272489705162659,0.036686703570414994,0.03788399661782325,0
896,0.032096106730168765,0.04212795154456069,-0.0655684669064319,-0.0021676261659571237,0
897,0.043725767620616814,-0.019472668690472525,0.03703366525600708,0.07683405703178887,0
898,0.02098281448913102,0.02042364563413954,0.021566302372166845,-0.02764139124238511,0
899,-0.004453470606614556,0.0025516531084707763,-0.03869080961583683,0.010518395912547239,0
900,-0.055961139045256514,0.017619015267912354,0.04361488759514405,0.0012575536109168013,0
901,0.12325229908478492,0.058520716432490544,0.08811956202786628,0.09226970242698966,0
902,0.23412845287843367,0.2588919319045348,0.27745075525474877,0.3234452935480199,0
903,0.6010397470585753,0.5520478662986787,0.4995500818114882,0.4375388690192529,0
904,1.0499755867124219,0.9644479037263259,0.8832547322567968,0.9563007695925099,0
905,1.5814113679966595,1.5777092554390106,1.5826435780764114,1.5416844077910181,0
906,2.4152087839490712,2.4179428201839217,2.4318027899012207,2.37767212963768,0
907,3.3191680685248417,3.374239680886089,3.473139882484624,3.247454761664186,0
908,4.476944288142984,4.456177964639321,4.499663994956524,4.345417102566688,0
909,5.398538310690881,5.54438275175594,5.50633929117317,5.391465224739304,0
910,6.33295900020656,6.287664980996099,6.289173938323532,6.298294572426568,0
911,6.86686782722478,6.937518396819002,6.871028191613351,6.937706356402697,0
912,6.904117119495295,6.967821918729646,6.951925516348418,7.007273379469784,0
913,6.224765235398936,6.291696722902322,6.252061163971143,6.380775343721061,0
914,5.122093420859202,5.192117971252444,5.282041773659897,5.091482973100277,0
915,3.720954343179986,3.6702845931173043,3.5873854720350726,3.5913425248369766,0
916,1.8903845634607952,1.8596739219509442,1.761431954218591,1.8564355671928843,0
917,0.031389488271543475,-0.057817987476018864,0.023497878522098576,-0.013414500524444782,0
918,-1.5468674404686384,-1.6437906279729677,-1.4524878153779148,-1.6166075601597558,0
919,-2.705384210595237,-2.5236905972612775,-2.693716230747989,-2.633934682842468,0
920,-2.985527610177601,-2.9716056872457792,-3.027607856681473,-3.0259576200522464,0
921,-2.8003488652996773,-2.7675185704747727,-2.764063310769452,-2.7563074723315446,0
922,-2.1267104835638486,-2.0799698070199835,-2.1049403580838706,-2.084838019357987,0
923,-1.1356494906922316,-1.0766745497265133,-1.2064991281262922,-1.0851023854229318,0
924,-0.08001976204883327,-0.07650133206486198,-0.06615431960621185,0.06977892764949833,0
925,0.9815166837217014,0.9111433939138176,0.9401504710514056,0.9983583900263637,0
926,1.5082768106947753,1.619683806619876,1.4120575222742637,1.4965525821364205,0
927,1.5735850531137294,1.4776668140730975,1.5265824703539903,1.6613060041695957,0
928,1.3484663173578122,1.3607179121236355,1.3187312462327934,1.3356126600066218,0
929,0.7933345909766634,0.8480862696125793,0.7978095842408068,0.844813913327022,0
930,0.2156163522634652,0.28313300000022584,0.2566468857149284,0.17642711501926708,0
931,-0.3211345859875577,-0.29553231157387194,-0.31361121311956613,-0.34750546063021853,0
932,-0.6819330172777787,-0.6980100716540504,-0.6839537836970965,-0.598862271915658,0
933,-0.757536488505553,-0.7660969310499064,-0.7783069631655377,-0.8157580077212331,0
934,-0.6660465785186804,-0.6580030743055886,-0.7177060708235621,-0.6665628296106972,0
935,-0.41356102323961386,-0.5546341577311453,-0.5116661613074232,-0.4456866704466883,0
936,-0.08507118299203578,-0.06688168858828061,-0.16089690906882634,-0.09009466385355336,0
937,-0.015387922229573622,0.08073669643274835,0.062087780182609235,0.1656882772838729,0
938,0.2264719413452939,0.2795146198958697,0.28443651885751947,0.1861790208759392,0
939,0.3511297829287271,0.31792607876264767,0.3037910357207815,0.35167454548274396,0
940,0.30513375387885944,0.33200131053886484,0.30538899132061664,0.33289049395601455,0
941,0.3054487082437001,0.19227481821214032,0.12123922333931585,0.14015911120988467,0
942,0.11222841480915091,-0.026514934277749265,0.10230106181731463,0.05268629915805101,0
943,0.034412284020858254,-0.06069387657265659,-0.07033166877733385,-0.08433166158194,0
944,-0.059006974120429455,-0.12628683730948848,-0.08062750199061919,-0.06147432199843033,0
945,-0.013277222807003233,-0.1717951210487118,-0.0947025832866455,-0.0005021441686157563,0
946,-0.10066963010328038,-0.12188568505471344,-0.1371962300202423,-0.04506888802435163,0
947,-0.12388920087367164,-0.018583496356605257,-0.0024687264001212322,-0.04980260911078874,0
948,-0.034987276483661234,-0.024562257786478404,-0.04441373648430795,-0.024513560193783784,0
949,0.016345122389353532,-0.1089560787398023,-0.04700120623387398,0.051667770736673904,0
950,0.016334305280856876,-0.004422007244835199,0.14852658879343433,0.08896726983538691,0
951,0.06215279323319152,0.0489658110786354,0.1128374056311413,-0.025212856777454808,0
952,-0.025628620536306504,-0.07311456639896094,-0.02446444782256041,-0.02585345420069656,0
953,0.023352330718846185,0.018862839529836542,0.008277149743209413,-0.003246721051453105,0
954,0.08274876397707907,-0.02856385287881992,0.05566489182111861,0.033835995168448325,0
955,-0.00946989180789351,-0.039685858691142696,0.016980620474163474,-0.044592611175456036,0
956,-0.018202410953425573,0.09781823315957132,-0.05265372844346622,0.00021173074970699205,0
957,0.005694490605419024,-0.048750544603441956,0.040176821281734276,0.028737556541388872,0
958,-0.034366486842887636,-0.1140850168085636,-0.050665073529177776,-0.00030633150963675464,0
959,-0.007493142424925371,0.01881469876858056,0.06356053852221383,-0.022798959560865615,0
960,-0.02573826151975289,0.02134324020092125,0.07866727934343767,-0.05078401996098501,0
961,0.030211198702511998,0.026200809660115117,0.03656551415877922,0.009597327745214613,0
962,-0.019366987203430774,-0.003339513293102672,-0.05272513556633435,-0.0069718280710220175,0
963,0.04481110434377189,-0.10361148789387006,0.08335783997939311,-0.04900437362023303,0
964,0.009700190275278308,-0.03880049537719417,-0.051804899068571886,0.0556559263672018,0
965,-0.005457470961226314,-0.025569562477315448,-0.021604102941313406,-0.007142335746452007,0
966,-0.0008101746885074866,-0.06907696034377152,-0.0515954255003889,-0.01289082468330137,0
967,0.031757961487124356,-0.08030846296719758,-0.01873014506085871,0.061723176231940693,0
968,0.04322654744358298,-0.03419583847712533,0.009317263156889343,0.03555506440893201,0
969,-0.0590122890700216,-0.016511816031734548,-0.0008226179958431381,-0.004709340610560379,0
970,-0.0434376980105136,-0.008478593457973221,0.022244101791412275,0.05815003764618899,0
971,-0.010249729092386922,-0.10903538502847704,0.0012189110170745827,-0.01437457580836393,0
972,0.061690317269602064,0.03572810703841847,-0.013557223958211274,-0.01914905335016382,0
973,-0.10059474776803133,-0.07269157052011319,-0.033120758057367715,0.012743876180377055,0
974,0.05995153578527954,-0.018673715917528765,0.05328459130776696,-0.013344561888684252,0
975,-0.03780402040302343,0.04113664558764911,-0.14440824003310648,-0.03350162842942351,0
976,-0.01595463931115728,-0.06784633558275945,-0.05638198871315318,0.02705487459023157,0
977,0.010103634937925663,0.026415317134122693,0.023284937075037607,-0.0047005262740997455,0
978,-0.018669501447136732,0.012419351966419833,0.09286859467014143,-0.07677716403462222,0
979,0.008541764079514876,-0.03612070150211084,-0.02022753229783497,-0.01401322842935929,0
980,-0.037058574206186815,-0.039971283482638315,-0.05006349001111087,0.002520753864585407,0
981,-0.012776940644076619,0.032414927490462896,0.0434674247274806,0.0405020714963906,0
982,0.04378312109275651,-0.02834711668592248,0.016428235358071402,0.042415742178700463,0
983,0.05358003176842156,-0.03887593367576662,0.06870406273030635,0.019372886043492795,0
984,-0.057766804738669436,-0.06338813103616453,-0.05507439053728907,-0.06643764863574862,0
985,-0.02733986480105848,0.022244243663908227,-0.01737022395738998,0.0020786156618990896,0
986,0.022220459232291156,0.006162535194003826,-0.0021390157723035754,0.10913493298988823,0
987,0.0687982726417815,-0.01625111544733313,-0.10355674774848284,0.025487186294163786,0
988,0.12149001598449977,0.03717281512158058,-0.0702519720632829,-0.006700103064574019,0
989,-0.08287982893429213,-0.02392556272838482,0.05606815871147791,-0.036357635530673116,0
990,0.014353309958036364,-0.017596798148870767,0.10837758951902352,0.003822785785656116,0
991,-0.0986541518900089,-0.0699475469217477,0.06442258563547656,-0.0688192984205586,0
992,0.024877004929574113,-0.07789340576814265,0.06683589346153808,0.014970748873214944,0
993,-0.0025025436520811307,0.005269372239037858,-0.011594699896199252,-0.023528960135249095,0
994,0.07423961437152103,-0.03660305227785292,0.04917826661709468,-0.0801034291268456,0
995,0.02191323097328387,0.029847066335688854,0.01713776270200166,0.03925082329598054,0
996,0.010272117240893622,-0.10288334642926564,-0.049745674782662896,-0.032596977905629494,0
997,-0.03426777001160387,-0.12471804221863864,-0.016636902928130803,-0.035093818511845884,0
998,-0.0016956786569956822,0.02789608827031277,0.0382030683275382,0.16729102533684545,0
999,-0.017298373080349712,-0.013063698665390417,0.031191786348679446,-0.025745785095543094,0
