timestamp,value-0,value-1,value-2,value-3,is_anomaly
0,0.14053745310840896,0.2940168394649344,0.24383752240428977,0.27632287660617605,0
1,0.36919516167289157,0.3603936107614325,0.4917504537581401,0.4297027290533404,0
2,0.8676301906100848,0.8601961617501083,0.8095496274077186,0.9115451002392123,0
3,1.5673371849186117,1.6229515515401751,1.6227589740257198,1.539502700326032,0
4,2.467810132354358,2.5037186087965426,2.464974765784938,2.4704928893587867,0
5,3.594101043999154,3.5336336450794517,3.48842407418361,3.469711189916124,0
6,4.650533316643602,4.513453607809799,4.57626318806096,4.554992830146172,0
7,5.606507679784215,5.632854652186725,5.628070494434475,5.56249351306377,0
8,6.3982976937928,6.374513460526963,6.448633923123752,6.466509019460248,0
9,6.887672923455174,6.902213736292094,6.9408473121954355,6.8500040493518215,0
10,6.850024271980502,6.895527231150343,6.891238746015684,6.895849091774808,0
11,6.15625498003631,6.2717017847574486,6.206896927531752,6.368897112316986,0
12,4.966710497981755,4.947145702405478,5.051949249465934,5.086223114772987,0
13,3.4267184785902103,3.4079777039968864,3.544789803002391,3.4283414306302653,0
14,1.6514193475751644,1.68141470383141,1.5862292904216446,1.607497462295159,0
15,-0.17339983849511578,-0.15965781247527358,-0.2184817801991397,-0.18232460432189254,0
16,-1.7280966727704457,-1.784870945655535,-1.713060742443354,-1.7684267805780713,0
17,-2.709588773556001,-2.715631387277431,-2.750557757766952,-2.6647496114035047,0
18,-2.9634735131557575,-3.058284670904868,-2.962600746874988,-2.9904969965356707,0
19,-2.7161102756250526,-2.739255453743267,-2.839983658108941,-2.7976350171695743,0
20,-2.0427503502448547,-1.9357606703248067,-1.9388844253168145,-1.9913574979683992,0
21,-0.9410059539416807,-0.9545591584763807,-0.9390887354213725,-0.914792192098561,0
22,0.09854124043177476,0.10791895060561198,0.15616867754337732,0.08944620158886507,0
23,1.0490805892256476,1.0853172993537255,1.0738645902113926,1.0564311792762666,0
24,1.5863808484420017,1.5446893147969398,1.5087683569605013,1.5619444992226519,0
25,1.5998212942462529,1.4943919617679804,1.5895036486961829,1.5730435596454795,0
26,1.218894291044804,1.2808618853811062,1.2818721165392672,1.2783066822604021,0
27,0.7688623757866941,0.8492654265222204,0.7631246201316935,0.802057584076948,0
28,0.26675357366153024,0.262609448591332,0.22798127996807097,0.1533240678075242,0
29,-0.29267512311174465,-0.26643108220906303,-0.3323980810607609,-0.30546030526464285,0
30,-0.7236994353625869,-0.7299986227359696,-0.7005533451707429,-0.6787697280626037,0
31,-0.8414176481428821,-0.7581994928810935,-0.8019197441340257,-0.823843182259937,0
32,-0.652234890933732,-0.5908834904905628,-0.7311723048755443,-0.6537343983754187,0
33,-0.4190879930065737,-0.41235272685930363,-0.3599245033292912,-0.4306510947125588,0
34,-0.16379652114033574,-0.09535462308501391,-0.22471490252672716,-0.12959445995673766,0
35,0.13410999226698056,0.17411164595737882,0.11521358545390459,0.08724353703420074,0
36,0.2946367715643705,0.32525690414064523,0.3042597118531861,0.2359932232003828,0
37,0.2302683372908076,0.4024345763646373,0.29197679519556585,0.33040785232945413,0
38,0.3148904676995845,0.16013595645685105,0.25464087256953694,0.25507422256515716,0
39,0.22596451668262643,0.17298516449093404,0.16720405110083672,0.16134537130527463,0
40,0.12770243914442111,0.010407733850274728,0.045736063336559336,0.06462905158021774,0
41,-0.10545195409122156,-0.12921454915828348,-0.007348033409778583,0.03704374100735166,0
42,-0.13588782154822315,0.009309728944610421,-0.03053915788138467,-0.03179708817575251,0
43,-0.14319403902370303,-0.16039360658895008,-0.058009837264308244,-0.0861519125460956,0
44,-0.07181303617695578,-0.07863816805315872,-0.07916911265226935,-0.11978426803988379,0
45,0.04506917499115139,0.010547912385932598,-0.07641254665217946,-0.012610381042485713,0
46,-0.06289674476960429,0.1075965940003575,-0.06370011308692683,-0.041082132039180236,0
47,-0.07249323167395974,-0.012356363800864502,0.05465801284367394,-0.007164132251527781,0
48,0.04072338359687359,0.06090950811871879,0.059084098665641474,-0.003568612620969025,0
49,0.054573308185286135,0.05616261181561879,0.007076941889336601,0.05197455067253838,0
50,0.0021172108205698426,-0.02369317602517008,0.023485216598192412,-0.03933701785830168,0
51,0.0020304191509628138,0.028831452316218878,0.05124938563292328,-0.002042485969513716,0
52,-0.02049114227943573,-0.026012600905623493,0.07081641447626962,0.0886493617877206,0
53,-0.05511127930216691,-0.05156856805030965,-0.06448444113245294,-0.027648861575008704,0
54,0.023796145522023936,0.036578511123004684,-0.04983162912860378,0.04724820789646374,0
55,0.002742742563693663,-0.0006663107333717408,0.010691125022026973,0.047573152064340804,0
56,0.031006704287134722,0.0815852217257276,-0.07015555192366471,0.06926067578517815,0
57,-0.01902715649140403,-0.061689877245742965,0.009560195633241536,0.03591758333491997,0
58,0.07491683010383204,0.05488841961646247,0.041931361815390256,-0.03939664819244786,0
59,-0.08296615205245135,-0.1124339033019121,-0.0149111034380995,-0.01872592716335012,0
60,0.05480463417376176,-0.09747403025080104,0.010067385044771589,-0.012705979691384534,0
61,-0.05851136763436824,0.030518224592812896,-0.04359849100398297,-0.02819700802726539,0
62,0.021792943466946775,-0.043554606437036576,0.022109796533151073,-0.08435448780574961,0
63,-0.017062608185405725,0.04211246029967313,0.0480205159707214,0.027704133299757683,0
64,0.05838421382056395,-0.03038788254772117,-0.02762553612785106,-0.009815622133260243,0
65,-0.007061947441358948,0.029080783683503367,0.052967723622263346,-0.09212292834217888,0
66,-0.006215468144528099,0.0011842500430987875,0.058792274593981404,-0.04496571037239579,0
67,-0.0361861642910452,0.02200837954052552,-0.10735172389797096,-0.002446245249034582,0
68,0.003520918723868754,-0.02424815549612441,-0.047709923765546385,-0.04150846463330023,0
69,-0.02429122662678084,0.0046599703969239376,-0.026935711632740347,-0.03419857942605743,0
70,-0.03949194401976186,-0.045986519279044895,0.025431605056058418,0.057693911938928574,0
71,0.010046309212861898,-0.0026156369441194655,-0.03599430386141909,0.08212850360677904,0
72,0.03491326220048144,0.012665805089435177,-0.03695715607350254,0.04161227714418936,0
73,-0.008444207480014232,0.07166910115496293,-0.04296151198165674,0.05045679057385396,0
74,-0.08554572693247375,0.014115876889752842,-0.036993213432511184,-0.123770695013187,0
75,-0.08207584484519351,-0.013645779825533272,0.035011121503769976,-0.035381910175123585,0
76,-0.04695063238365141,0.02802411436995932,0.08323948833830731,-0.0006375922685888723,0
77,0.0113279157775042,-0.0361612193687612,0.04028623146753876,-0.04910514025224089,0
78,-0.011583869566343968,0.04171762017556853,-0.03885442456512468,0.13040709973484346,0
79,-0.06917322423792974,0.009632577302937005,0.012484414529140177,0.05340652256247495,0
80,-0.03526355101919914,0.09684709904361304,-0.09990346843196488,-0.09648230768565699,0
81,0.035307980915656,0.09777613927776967,0.011606646689333477,-0.022032910001014372,0
82,0.013392498120486873,-0.04288236833058177,0.017570551260133425,-0.05958134104461507,0
83,-0.017023628391403568,0.09777654900564003,0.04701877248213661,0.06421233755887297,0
84,-0.010535431030674931,0.03572186055494975,-0.006640352941909496,-0.06277464748621876,0
85,0.01771302730600168,0.033820858502626186,0.027956940003986824,0.05715699181936106,0
86,-0.022418365048310664,-0.028165404064251616,0.06947815319468299,-0.040064954135898605,0
87,-0.0717948471353861,0.029732148161599147,0.08758286105390854,0.035049831454377685,0
88,0.1508697153961821,0.0027440457802423634,0.008916473180067244,-0.10298208286216937,0
89,0.07327694049614639,-0.040601972898927946,0.01733715863227344,0.039871358305804815,0
90,0.04287568062749891,0.018021636676065766,0.01076410397751237,-0.015417966562638828,0
91,-0.020218035968409855,-0.02240980992541257,-0.016732164597008103,-0.06667131775784933,0
92,-0.03598422801395056,-0.03666415223761437,0.015166321281716834,0.055132171673061114,0
93,-0.03091848640370052,-0.005692427816872598,0.018837589413943128,-0.022780811161193095,0
94,-0.014289749767582707,-0.025086382165958716,-0.04060917898302673,0.01050316901533473,0
95,-0.05278785333948836,0.04325595860864739,-0.013936959424579363,-0.026883276577798196,0
96,0.02724362712308943,0.005707746733919069,0.034299556803223163,0.12825325124072853,0
97,0.12073847454159263,0.010978178770046917,-0.027124317156146948,-0.035181806859714344,0
98,0.08634129054829863,0.00809485252022462,0.04593671927045927,0.06332984052679294,0
99,0.02543471993805,0.09093778543137784,0.10526645689961628,-0.01058510077915513,0
100,0.26991351988611956,0.13639141101210694,0.20004059364574064,0.2974732089427695,0
101,0.5262101300681742,0.46165670006799736,0.556237664338977,0.437633711704354,0
102,0.8677092377855452,0.8107638901091316,0.8827714282788235,0.8219723459639382,0
103,1.4471588340571162,1.4491568408255426,1.4477999949105838,1.4188288264693858,0
104,2.2889550384673676,2.3244367849199112,2.243627188670883,2.3174501823481246,0
105,3.2303727672606524,3.1935639604586887,3.1298563464965574,3.2354622005801117,0
106,4.322457737831591,4.3022286640812215,4.291455230130891,4.299388526501661,0
107,5.299798654330033,5.3635348289475795,5.372314424459714,5.342384843005432,0
108,6.176175264834369,6.260339667330457,6.235573659650472,6.290745267485909,0
109,6.784333015877775,6.806867912391137,6.948133526167941,6.85665072720441,0
110,7.040385716098454,6.853147498666616,7.022772212300518,6.922116462886512,0
111,6.389054817117794,6.460439661073751,6.458980679116412,6.466779677409886,0
112,5.352725615971252,5.444815782700824,5.218067136404966,5.4079219547323865,0
113,3.802748689661703,3.83391206953671,3.8552401020541933,3.7791233223390104,0
114,2.005659905701169,2.0542974858072856,2.12468043174056,2.1121950994917973,0
115,0.22260396424231227,0.17552793244597995,0.1698783139305956,0.2252470745556534,0
116,-1.3405849909883665,-1.383825720955182,-1.4578728394646876,-1.4463348509409653,0
117,-2.6190428955957796,-2.5125951003534066,-2.6269204211889376,-2.4894593218535612,0
118,-3.066592856084868,-3.083726208959843,-2.966207157068425,-2.995745912897073,0
119,-2.9543092789583216,-2.744528245917545,-2.813783701959719,-2.8609679042590868,0
120,-2.2146542461610856,-2.1377545253851316,-2.244534279786184,-2.134961474944307,0
121,-1.1824355167091865,-1.1789427979532034,-1.213261617360664,-1.2214500003121844,0
122,-0.1643316232278487,-0.1545077147441547,-0.08873058925858432,-0.15104521994626285,0
123,0.8531274550466642,0.8062308021281065,0.8871823402266428,0.8375744789390206,0
124,1.432671054790526,1.346606360913114,1.4427884710198804,1.4577853702359396,0
125,1.6013102226378202,1.6267063805935371,1.588823062739599,1.575788153413282,0
126,1.3292442435789276,1.2772314169196906,1.4607993067020928,1.365713205618879,0
127,0.9004401149982288,0.8667044975840342,0.8995048114694402,0.8476140752239611,0
128,0.3365133441271293,0.24226755127548605,0.3207004369937038,0.25778666841794434,0
129,-0.20749167252790274,-0.23316306723710872,-0.20707747807459004,-0.20768302380223566,0
130,-0.6710768588267846,-0.6722664742633131,-0.7265240352461001,-0.7213630396075069,0
131,-0.8157371348539715,-0.8913654585439458,-0.8365811076996358,-0.7575907420128828,0
132,-0.7161119706141413,-0.7212929921118629,-0.7821946723097182,-0.71707536574174,0
133,-0.5683558247808909,-0.39605427335202986,-0.4767534991762645,-0.4679303089931833,0
134,-0.2064927011356127,-0.16523436363892752,-0.1612565905340503,-0.2259907788766608,0
135,0.06636599330216807,0.1565578628307033,0.030841604310570512,0.07546801644187678,0
136,0.3522126351616959,0.22089150618195152,0.28323554909949894,0.2904898440653659,0
137,0.31194134128872286,0.23764527463540247,0.3435821275204971,0.3971800760388642,0
138,0.3693962132656412,0.41913962599802607,0.2742976275091383,0.32081927688255435,0
139,0.12292489371229681,0.22522938845810392,0.22003802816460605,0.17464343690075362,0
140,0.08222829480518239,-0.014773238318763704,0.018656988707915177,0.14070272041316578,0
141,-0.024562863557825297,-0.10952133376104084,0.03033776264094689,-0.006587480100459699,0
142,-0.06432367297850677,-0.09027107479708253,-0.14119589779853609,-0.07940430208546324,0
143,-0.08159124775759641,-0.08637886768276196,-0.16854955932232413,-0.13116311421287455,0
144,-0.1257219564608805,-0.020687705539220988,-0.14474729762060423,-0.16749851184515033,0
145,-0.03368666149001046,-0.025727932929615463,0.03916212868713273,-0.01689755390495446,0
146,-0.02149103963089141,-0.02812318616485472,-0.13401782876772508,-0.04288846224000786,0
147,-0.027448712617295548,0.028697408791947106,0.054677563295401556,0.1260597753105244,0
148,0.06375784616666477,0.11492136075046461,0.03486167350366918,0.05291726348775376,0
149,0.015989865267698845,0.04933097146729339,0.08405646066478983,-0.035974429979768165,0
150,-0.013475352710437219,-0.001270275979329813,-0.014896377533407397,-0.04376070395203898,0
151,0.05030348841863173,0.07242744399583576,-0.03722029778932662,-0.02162947332275284,0
152,0.0391538624180909,-0.07856527435027268,0.056977398998156105,0.04075645876955848,0
153,-0.04411169962235392,-0.07928047057049577,-0.07764783993147822,-0.025934146418498626,0
154,0.007790170265580231,-0.039784143228252314,0.11369553903089447,0.032807780733122356,0
155,-0.012945596923526714,-0.06528145764049045,-0.005022571821502756,0.00941967383614543,0
156,-0.03258725188709214,-0.06259162674958857,0.07301531643807264,-0.002127120036562512,0
157,0.1012566874323193,0.09543667701363108,0.03011711784128919,-0.05321658557734453,0
158,-0.012570523425567763,-0.02586402654288173,0.038751986698380515,-0.029310266785984793,0
159,0.009242268730535984,-0.029771532748684597,0.03773152319639583,0.06185101825810519,0
160,-0.017456032790282575,-0.042010182621769164,0.06326667602677674,-0.000573476701129845,0
161,-0.03807469685096442,0.025122956406020573,-0.031979783301818734,-0.006610138890449489,0
162,-0.08638954409555573,0.010311597574461328,0.04313738114349416,0.07805837918321167,0
163,-0.028658690017999967,-0.09118173185925332,-0.043170754012469045,-0.07569749670759324,0
164,-0.006476843140246429,-0.005288711231424915,0.03718995832743127,0.048774727800539534,0
165,0.01419859979233615,0.04944051175626076,0.025725775586217626,-0.01638677001727029,0
166,0.06154407448386318,0.029258989151970623,0.04970053277632269,0.02265098015677723,0
167,-0.014638328410395115,-0.04063143538283856,0.06769022667883125,0.007326661496544106,0
168,-0.027288848779178903,-0.02927933573769249,-0.005026942473561614,0.001181331474767605,0
169,-0.04393316939234733,0.07256414834635531,0.015874510968885723,0.037886136815155444,0
170,0.0019495974892330323,0.0704855350349371,-0.023318605852891024,-0.09088920452756516,0
171,-0.021010739988594564,-0.029984329069124686,-0.03207529682515994,0.030831816288422104,0
172,0.0911285923144535,0.03939585076571825,0.03235100020136374,0.0887034621517991,0
173,-0.037535427966260485,0.09117560565862258,0.06531316022164238,0.12196149469123727,0
174,0.028597706895939053,0.06257894595622622,-0.015201720409508242,0.024984039260900905,0
175,-0.06035087247353519,-0.04932026532982835,0.04142239631106328,-0.03197216457478183,0
176,-0.022068775867142273,-0.030835818713316462,-0.02681138651516875,-0.09615421503948912,0
177,-0.10299167943791795,0.0579066420209641,-0.006539740062730876,-0.00928349789640712,0
178,0.027277529060511244,0.011192811855772512,-0.010509883245067572,-0.030710558052132554,0
179,0.1198798374781955,0.03324033224302233,0.03398579105149783,-0.02305099710144797,0
180,0.026180749066033304,-0.066307729860278,0.035143776821822965,0.049629957647658936,0
181,-0.014367384348594595,-0.040766645857558105,0.027858096943810036,0.05998436704043687,0
182,0.03193764231833032,0.06441201516827136,-0.006592908438757247,-0.008236443402474595,0
183,-0.030369601769917688,0.02327947838162931,-0.07382957223338393,0.05086882395991,0
184,0.020241509071586672,0.014871079427406404,-0.0033167416115940035,-0.026868219924462935,0
185,0.015317276080448325,-0.09253453057788333,-0.06591797820319736,0.005751075498996477,0
186,-0.056053507117092186,0.036606572198086204,-0.03186810811615415,0.017309923468167634,0
187,-0.08145061032715029,-0.010910567008388238,-0.059345558400987736,0.03020072270990343,0
188,-0.008577986202260135,0.0055856235955477245,-0.03931601421770061,-0.033392369231101324,0
189,-0.061972421918617335,0.04731712687798742,0.0039010275166613583,0.038335145166853116,0
190,0.037267769664922054,0.01910735393265433,-8.493683614769792e-05,-0.10677930178536606,0
191,0.02849476651312114,-0.008767947128766947,-0.003818641515135023,-0.010620552925477188,0
192,0.054486135231522036,0.019891906848171298,0.08152244705325226,-0.004304409472694849,0
193,0.08749341886303998,-0.00963170774669031,-0.06415628490590868,0.0365856845327323,0
194,-0.05822451492547403,0.10644557162643736,-0.007916167725339148,0.011933079971045894,0
195,0.01571309542511157,-0.03461463848464911,0.03433298921326847,0.018072841081627874,0
196,-0.10894500055998406,-0.08186273539683477,-0.03376787299134104,0.028576093566974645,0
197,-0.0018010236312095466,0.013816895119846753,0.02341390274034153,0.009006645582788127,0
198,-0.0036558682725336567,-0.020549687281733908,-0.1324099022217416,-0.021204524672615032,0
199,0.04763670509272522,0.07661344130221504,0.03267636069420795,0.1057939047413745,0
200,0.19546098798831843,0.2102370648475446,0.15667641489482143,0.24386751870135936,0
201,0.4002923817682042,0.3835917901736079,0.44506012313766147,0.4219443753671216,0
202,0.7377511610396891,0.7299989755590212,0.7838935735549281,0.797245909044801,0
203,1.1931684313707813,1.3128126917795349,1.3087439927420257,1.2283081794845225,0
204,2.073849741189306,2.070291078989017,2.003531679722165,2.0447053613142803,0
205,2.8932273818416707,2.9202200506583442,2.9993213375848713,2.9955357299012455,0
206,4.033389910459504,3.9858179245591767,3.9448247051271785,4.088343111467057,0
207,5.197012619634835,5.082169864189915,5.19840143056944,5.088705096959867,0
208,6.040983366253945,5.961465026949926,6.106214623955392,6.032768707348018,0
209,6.6977676469132135,6.777845569315733,6.765528956483136,6.722255097758952,0
210,7.026531757267063,6.960950462084182,7.026272828929307,6.9692994560164365,0
211,6.543597374113166,6.634367572168084,6.609201901881329,6.680016438510666,0
212,5.630645338937918,5.607449918530709,5.664370173706512,5.619199855282049,0
213,4.16299728502165,4.307902968704533,4.226541725152104,4.227839572755964,0
214,2.4882900979194416,2.5524602643530336,2.4201047050111066,2.5857747656994237,0
215,0.7040905022124606,0.7168407468169311,0.6989542084458749,0.635662922963751,0
216,-1.0501385368940386,-1.0847800822933453,-1.0668936544852448,-1.0446000372906865,0
217,-2.329592209995092,-2.298701216605643,-2.3377989451922834,-2.396040249456242,0
218,-2.9459192619680645,-2.9541535442078355,-2.9832678049302843,-2.9541792367073385,0
219,-2.892491141343579,-2.972969054140646,-2.9055575980828747,-2.9073189416009075,0
220,-2.418811041168263,-2.460831042167369,-2.4596620216675666,-2.3921498004053703,0
221,-1.5209603417348068,-1.5511919025291683,-1.4751508181441682,-1.4536808664422163,0
222,-0.3541890157152216,-0.3545541614696407,-0.416476639326107,-0.4705591141360459,0
223,0.7064330724772331,0.6545080859260224,0.585221357872209,0.5665910042874358,0
224,1.2571990610334645,1.3261710378891207,1.3509547710287606,1.2677104456528694,0
225,1.5718618706161946,1.568053778002377,1.649831200900366,1.575067761485937,0
226,1.484407140608537,1.493869848677025,1.4326234925615549,1.5325998454716276,0
227,1.1269316925022181,1.0287767300415864,1.0834334865861688,0.9425925867902438,0
228,0.49594272549996476,0.525370208540365,0.47337416188678316,0.4674980148192608,0
229,-0.09506827867065273,-0.0674221027393711,-0.0096090477949516,-0.09227270734451083,0
230,-0.5566224955130041,-0.5923014602697665,-0.620177244255499,-0.6129441893975952,0
231,-0.792233519169802,-0.8031129599193323,-0.8278134501219624,-0.8010418778479542,0
232,-0.6999513827647103,-0.7507409369961378,-0.7270066570046583,-0.6288190338459472,0
233,-0.5172612792672805,-0.5218503529865521,-0.45505976713490004,-0.48922916398441274,0
234,-0.22183074901944055,-0.2558038941381201,-0.33864381908862806,-0.2767159899137801,0
235,-0.1063152963128142,-0.13407925909294327,-0.02105776869490107,0.0025290884613326796,0
236,0.128958067522927,0.15244309427026792,0.134119450991801,0.2697257984306656,0
237,0.29127596696039226,0.2933160263328683,0.30776692764389546,0.3471701575423089,0
238,0.4228530280985975,0.323965943813745,0.4228271452808047,0.2821154318404878,0
239,0.16319431062197526,0.32459908681193805,0.1651867800748248,0.2566931334928437,0
240,0.027365842270629062,0.059119337549593386,0.12308216220779765,0.17253056632284486,0
241,0.02405885065909843,0.007712038599601382,-0.01867153148606141,0.028359716122859188,0
242,-0.11638731083857858,-0.016232097123686652,-0.11281224361474879,-0.10675778088705977,0
243,-0.08518332623786501,-0.023795449331131785,-0.1575669349115109,-0.11087020190112534,0
244,-0.19935123810912592,-0.14929518335458764,-0.06883591225545369,-0.050504051607590875,0
245,-0.0861156895795405,-0.10534066042396525,-0.12700780682490037,-0.04587738689852576,0
246,-0.05858052094529243,-0.053082559572086935,-0.08734106849415357,-0.12026920392084928,0
247,0.03358464631054597,-0.028284459074058944,-0.04943359999000534,-0.047034915789258815,0
248,0.08561150686812144,-0.05009404129168442,-0.014375876001775919,0.09414783399259881,0
249,-0.012378950499543108,0.03487617811114359,0.09907143861259982,0.0679350614775111,0
250,0.055299305505859764,0.06433297819460312,-0.04250701921574901,0.037924327568315916,0
251,0.027865616022087238,-0.06294446079028951,0.005240645458314631,-0.02081459355685509,0
252,-0.006110182564105448,-0.09004724435961194,-0.0016429475202498593,-0.03887626911537204,0
253,0.06633539481562585,0.013457884635259253,-0.024794832268119835,0.010522995995720237,0
254,0.0900366307649181,0.011118036939503854,0.02726086538684017,-0.08586498655811703,0
255,-0.02170203712577944,0.08134634092848154,0.03624138294548822,-0.07892337892498755,0
256,-0.0604589300416547,0.02429624645362674,0.06356093991749508,-0.05637933370598205,0
257,-0.09763172168109206,0.04456497239969263,-0.018790505895824112,-0.026521670117000993,0
258,0.11534432320768984,0.07336505575209636,0.007283275807411746,-0.06210580947044262,0
259,0.0008348142637288666,-0.04751134662639511,0.020130469199206556,0.034330124781629674,0
260,-0.011154325352330342,0.005479901238495217,-0.04849997071642962,-0.03991294900674788,0
261,0.10334496870927035,-0.012022973401018981,0.028876670549716862,0.06795571959821364,0
262,0.015842459238768532,-0.02541433065692626,-0.007586818654576056,-0.04459805986173628,0
263,-0.08185513885525843,0.07608660195490384,-0.000397219490482017,0.09563162524770472,0
264,-0.027911948858607656,0.021037393724170444,0.009354879634384493,0.048797115488776306,0
265,-0.0012973022235058878,0.08991678684779521,-0.015864511073450015,0.039853437835087845,0
266,-0.09163108241963547,0.014690655588765988,0.0596748938403525,-0.05729191857952755,0
267,-0.020684095424815398,-0.009632643743782933,-0.01728597560012302,-0.003912737207516556,0
268,-0.05316562160279253,0.0683220704646688,-0.041359201931106954,-0.013813807511231502,0
269,0.10640996804489163,-0.009211577016395515,0.06898155788207903,-0.0055667462877248865,0
270,0.02951647179843245,0.003117643164076083,-0.05881769727366843,-0.0010085342672423096,0
271,-0.029930066588790508,0.00981329863892382,0.11646108804596571,-0.04141250151625016,0
272,0.017879333503183863,0.017528231941703155,-0.022565939441179166,-0.01302195515408627,0
273,-0.06709125913121189,0.00954616004354793,-0.001885290237029438,-0.017735775407390835,0
274,-0.04123081377479418,0.014737714453862093,0.027190041258095328,-0.04494361986713025,0
275,-0.09532023685032923,-0.014231448249735762,0.02094823250745699,0.027299200043373446,0
276,0.014203434765763046,0.021326110009723905,0.03760291942067623,0.06287867466991712,0
277,0.059974276736603375,0.02400764085067005,-0.051650523433073685,-0.004362778869612618,0
278,-0.006175776352779333,0.04301539095883861,-0.019463423718740307,-0.030822809253691057,0
279,0.029037403502389564,0.06308244268532846,-0.02369401143417177,0.0033002421344664906,0
280,-0.0699456466198476,0.014815831781388036,0.016577933484945517,0.064775782301621,0
281,-0.034352039263655765,-0.07811091418896517,-0.02473847811153046,0.019618579274226326,0
282,-0.003997783920036909,-0.05642112954448546,0.03561358606225626,0.01477338260464998,0
283,-0.002209837009543251,0.0026841475423417063,-0.088624437906236,0.03442069065910718,0
284,0.031106459616280984,-0.04976899274712145,-0.05969070897389972,-0.030583176255547517,0
285,-0.004829810871656957,-0.003958076625638489,-0.008518320275621572,0.023288702910628217,0
286,0.026277491788498895,0.03711159751679308,0.00563333826909664,0.029293275191595403,0
287,0.04540649202057785,-0.05623100911273699,-0.09178074595262976,-0.011096122952694201,0
288,0.082827006174461,0.04262210758081174,-0.04235179381484922,0.04156938883928161,0
289,0.06648150787366348,0.08250366509414632,-0.005120683913312357,0.06210458010559758,0
290,0.10160429373533925,-0.0687023962427257,-0.023185573741982147,-0.09731937267565349,0
291,-0.07747453294450553,-0.009184560414876733,0.07609049817618434,-0.056221380115584,0
292,-0.0038287915101880344,0.0617175208859194,0.06582252712961903,0.03220184446393341,0
293,0.12974879444312487,0.03423567930225228,-0.05815544838758451,-0.07102249351594431,0
294,0.03307205036669502,0.026321502220026247,-0.025383561698792283,-0.007060949827960856,0
295,0.024651891563141418,0.008316055076218755,0.0018722600850783352,-0.1117687590866342,0
296,-0.023992064562612526,-0.02652744157865691,-0.05020291570205539,0.032921583796425825,0
297,-0.024540479092347505,0.10911334630746532,-0.07007353412084606,0.027507300779356997,0
298,-0.021705830727504965,0.02290958961044083,-0.033826645748054815,-0.04996064619182299,0
299,0.016427890545451452,0.07292524705204945,0.06475965443843844,0.07061013137279937,0
300,0.11205067608939791,0.13094619615817604,0.14746563255771541,0.1700790128026521,0
301,0.3273717983774531,0.3822992788836854,0.32713346286008144,0.32908367551569223,0
302,0.6379478353068823,0.7127802569069949,0.6689742910296174,0.6374073405387451,0
303,1.1435860090564254,1.1591053582987558,1.0788164706969772,1.2099047283628903,0
304,1.8845175325798322,1.8135371430742662,1.8805146814286196,1.9184577375231922,0
305,2.7628580024811606,2.7575639462576413,2.8387286952608486,2.7712186861826087,0
306,3.8250240156659525,3.838220959759491,3.7929343567361533,3.743310436511342,0
307,4.942091425534654,4.7987063012060975,4.881585992019251,4.878473402797855,0
308,5.76508518606079,5.808237303789126,5.842325971949755,5.833259863194625,0
309,6.599827413984362,6.612132843637112,6.589279139127794,6.655304842221302,0
310,6.954846690956649,6.956786983946406,6.924595228508551,6.98332556258955,0
311,6.730190010476376,6.753175604411302,6.743500109190425,6.689837294308217,0
312,5.924965263790852,5.902503568804987,5.928706269216846,5.942390227498289,0
313,4.595472506193658,4.600949038313114,4.574196521803966,4.496608119566144,0
314,2.9572254166505947,2.987757178553342,2.880398110874278,2.986369373616936,0
315,1.0268179687065055,1.0123625166047407,1.1408646432432377,1.1463609626670097,0
316,-0.6798299610126607,-0.6403120799121154,-0.6142567700539985,-0.7699326359127676,0
317,-2.0854515402922416,-2.016698784699847,-2.197111822096719,-2.082097398263888,0
318,-2.8570534010866333,-2.8389749773939426,-2.7777350405764407,-2.856507243907472,0
319,-2.935629964346426,-2.9181286933085167,-3.067226356436405,-2.9790344985396,0
320,-2.6169818353955443,-2.571959460861626,-2.5900693071994882,-2.5309077464626397,0
321,-1.7518395982727464,-1.7108961774567957,-1.826002732742648,-1.7268161073041512,0
322,-0.5752005471788605,-0.5120247677775609,-0.6802454759083638,-0.6786735026481581,0
323,0.5111761201550725,0.4647453888276335,0.3843784135072469,0.49106649889741294,0
324,1.3187344598665844,1.183922375024234,1.2637036055632505,1.1525516781161915,0
325,1.5612546174505555,1.5090824742134326,1.6336567809160223,1.5792564803500857,0
326,1.5219570427659181,1.5099284591907949,1.4318443961007865,1.4592093418498087,0
327,1.0774277813571855,1.1431411001902727,1.1492508071033567,1.1679654184040864,0
328,0.52686642472019,0.6666738564327356,0.5993269916251897,0.5912453786208788,0
329,0.07836533478455882,-0.06100887320209255,0.01679396618346724,0.0575486814443804,0
330,-0.5407162369677941,-0.49005987755862307,-0.5628211155527865,-0.5119236203274287,0
331,-0.792569045663712,-0.8110142899648705,-0.7108525997026593,-0.7663189010293152,0
332,-0.8438926160905594,-0.8060348908285612,-0.6707446674733497,-0.767362482981231,0
333,-0.4759061836193737,-0.5327920088618187,-0.6744762993393776,-0.5719945837460428,0
334,-0.32659573181759494,-0.26928764257187776,-0.38210715508072196,-0.37021991557884876,0
335,-0.06323325112958625,-0.11829744048946611,-0.004835902949403351,-0.03477602176491609,0
336,0.06222065027353649,0.1638070334039095,0.09323735541351678,0.09978236774853427,0
337,0.31063447620484175,0.1947056394865001,0.2806453233545434,0.33088973580725395,0
338,0.18153832670316475,0.3881103255392792,0.22885038376811578,0.3548700260808259,0
339,0.3337245769180345,0.1666601622576221,0.20731642372109982,0.2591324119640893,0
340,0.13778647550539183,0.12686847297437176,0.1481323464380966,0.10791980357918106,0
341,0.011626796127101498,0.014909951318570556,0.050654884020159614,-0.023551372336036533,0
342,-0.018338040306481188,-0.06955108273816822,-0.12616114797411007,-0.07237760358460216,0
343,-0.06160020473059789,-0.1848292088279322,-0.11463043851422303,-0.09924952825596153,0
344,-0.08618208043049129,-0.10998752497271969,-0.08146023287228953,-0.08313428616936742,0
345,-0.02105786581038642,-0.16927696452638058,-0.027372240662344074,-0.11756575808547375,0
346,-0.011044597551581055,-0.09725448375763437,-0.006537787231292051,-0.15657417100315033,0
347,0.03219537233362336,-0.04850694692261033,-0.05509802327455956,-0.13235421517231127,0
348,0.045990209951457306,0.08338761553769958,-0.10538312538329285,-0.000629994611067889,0
349,0.052005791893569256,0.07852029997960891,-0.03986670719193233,0.020451819930526176,0
350,-0.07107615536285382,0.010118082762010129,0.029060460756203922,0.01847600400150913,0
351,-0.06336283594042853,-0.05557230105382728,0.017518944069759346,0.07244350214621599,0
352,-0.002224586209034803,-0.0719751731167954,-0.01829266143138923,-0.011116250175109418,0
353,0.03201079314231179,0.07482724278742715,0.004789187404578195,-0.044037912513828256,0
354,0.06348791270910678,0.007904030083744261,-0.025368037138834964,0.008971235599844444,0
355,0.003617830967572783,-0.06069924203317506,0.0019499126284497313,-0.03926541359111842,0
356,0.0007022030494304573,-0.03637268501283922,0.004777324018827871,0.0149363655853226,0
357,0.030323933168184953,0.0757852088074565,-0.0325256649142521,-0.04223152560107303,0
358,-0.01440346779553569,-0.05643762438358151,0.0668227411604729,0.038873486398887665,0
359,0.03598183494752425,0.02367923216686841,-0.05133777938134723,0.006963790266452864,0
360,-0.010871919353432322,-0.015300726960258991,-0.006638437761816459,0.019321996522207188,0
361,-0.05114604960156373,0.1010512000349971,-0.05939425075865218,0.10494728955335199,0
362,-0.009466501236877102,0.04139765297922249,0.06622654749588205,0.0194314427397303,0
363,-0.05202157912018391,0.022461390320844057,-0.022707862506317938,-0.012988260338077586,0
364,0.011505282120662388,0.011225775971431585,-0.054176963396403814,-0.015403441040622598,0
365,-0.027754354191360388,0.0734553215914449,0.052860414044494736,-0.09545060602372071,0
366,-0.020705939660446645,-0.07529650180240949,0.032941822883703016,-0.07308509996951086,0
367,-0.031880523851935745,-0.012275291902512307,0.01643862706399326,-0.007733648617798608,0
368,0.029299307676468832,-0.028525735966935598,-0.04499429331786341,-0.0940332301515684,0
369,-0.00888489080354512,0.0935890871321632,-0.017758237945763963,0.013421614258263579,0
370,0.03480985695448397,-0.01865818224320132,0.06997831041929063,0.005784290014522705,0
371,0.021272581834519966,0.0037003058621135525,0.05936177328665068,0.007835357714753405,0
372,0.04193939614781904,0.04954268331594242,0.041486976316482044,-0.004957796931620561,0
373,0.005230605080518499,-0.05066790827816944,0.05774806651408156,-0.02996646693661908,0
374,-0.0466730293777,0.0025243929338582033,0.021318529077041848,0.050840091317872455,0
375,-0.047376351955174555,0.040399452142436384,-0.025741256908085854,0.03704835517459434,0
376,0.028951173580774224,0.042392218550167414,-0.07216409454122019,0.022155731170188524,0
377,-0.013427153420629992,0.017516992524945214,0.026422376650664967,0.026836629128753738,0
378,0.012189780690804874,0.021746262125245212,0.06709205144429749,0.0031478956706775707,0
379,-0.018360502658606923,0.0516399816003632,0.020343013263042605,0.01951851408520065,0
380,-0.020269606094003238,-0.049247249520858564,0.035593613299310004,-0.08156373061604191,0
381,-0.018745117833855095,-0.017220432996927392,-0.13453316647547753,0.027805688247361002,0
382,0.06247656643712048,0.11455427169141275,-0.04192099521205296,0.02405369521610392,0
383,0.0034167518086117743,0.040436681132094164,0.023602613979409968,-0.01587616702927111,0
384,0.038662826678788696,-0.09145548353670539,0.015197534681718208,0.10451837060437211,0
385,0.04654866138817831,-0.06556451253298322,-0.01839849599931457,0.06834030209593062,0
386,0.00463235755175989,0.008589165429320856,0.021970329890396583,0.044749489239279044,0
387,0.0191414940492091,0.08840899822826107,-0.056526965817510516,-0.08735644676023066,0
388,-0.01560227487763299,-0.005954154585017861,0.027412905755526077,-0.06069962509957957,0
389,0.03739355880713864,0.0805476314738014,0.0804496144900628,0.008151839216217966,0
390,0.011631750887216534,-0.023104657177100023,-0.005482372489208647,-0.011667744613405126,0
391,0.05778245048198345,0.060337969297498545,0.057734092333990863,0.003681332043607573,0
392,-0.14224978071754188,0.022415559706357713,-0.08258771039005562,0.00954114481946595,0
393,0.011210421008485955,-0.09567580830501207,-0.004323454817052145,-0.06590935893787106,0
394,-0.04696911447634572,0.03869308076147591,-0.1083522299228633,0.030634244255566042,0
395,0.0005321219449479862,0.007050882749145476,-0.0036235698214128736,-0.005555003909170467,0
396,0.0030223878883092327,0.015275310476567222,-0.029570257101685007,0.011876015183463923,0
397,-0.025674216069470086,-0.02929337370568217,-0.013709286090109199,0.021296843766145247,0
398,-0.11469281036715055,0.018679447237913968,0.021595452758843198,-0.02889952163308854,0
399,0.048342713278091906,-0.010205392668431734,-0.02431667670888163,-0.01124498368063994,0
400,0.028426725876752892,0.10430018647340437,0.06346318540153426,0.12113971232279419,0
401,0.2775898384510785,0.2936111750050827,0.27886358258205335,0.32054894174685916,0
402,0.6001308438352783,0.6843211014828332,0.6071969888031277,0.504147807179104,0
403,1.0335670746263983,0.9210544515282488,1.0962709715507133,1.0229179214727775,0
404,1.7494513471291144,1.5793897849070586,1.6765957047388098,1.6768154506892599,0
405,2.4765366932560986,2.532125527680429,2.4158722502509993,2.5557350643533767,0
406,3.491888678101933,3.5143204018710095,3.5298351854549677,3.577190579654628,0
407,4.669536924085126,4.673065939851794,4.524814221257063,4.650839507097359,0
408,5.583247998174219,5.622509915380244,5.566660090914282,5.643612599576875,0
409,6.458136708582969,6.447529946467204,6.509251338556748,6.497939056689843,0
410,6.911812670722723,6.8328027489062215,6.87129406046634,6.921313249944009,0
411,6.856469540359722,6.91289556862309,6.879763069018227,6.866988020463295,0
412,6.096078044956462,6.136678186749415,6.227429071660906,6.269687140726905,0
413,4.95132647473881,4.82824900969344,4.962142509268847,4.874210091613741,0
414,3.329106818411759,3.3494251583385046,3.2616955440168627,3.3069106491545393,0
415,1.4072852905260615,1.6299472099393062,1.5429037718884582,1.4148242549921901,0
416,-0.22908786554282395,-0.38010932540749887,-0.2714593259962552,-0.2815315837210171,0
417,-1.811910756524671,-1.8352180509202554,-1.7888589418976728,-1.8375181835827425,0
418,-2.7139299553391116,-2.7924859661597106,-2.762980225171812,-2.7538349633647257,0
419,-3.011646204707375,-2.9965638109807067,-3.018353790017298,-3.020597808017181,0
420,-2.6946957363027852,-2.659756197490781,-2.73356864235745,-2.7278324891016505,0
421,-1.9436182176660668,-1.9431297114743593,-1.9541672976898392,-2.026604879438946,0
422,-0.9061091051952442,-0.9482723445608603,-0.8745727185428901,-0.9677339706055479,0
423,0.20359291647551384,0.13737211426057983,0.1680800152565328,0.17552119671408148,0
424,1.0834327405133135,1.109806599334374,1.0372319446924096,1.1360297329750184,0
425,1.519573500625428,1.553854354915663,1.4825628375046458,1.532578278052828,0
426,1.4921151954043983,1.5856653311220845,1.5670777362329384,1.499513694526494,0
427,1.2786639946232907,1.2100810593257616,1.331905487728548,1.2257142007647723,0
428,0.8809951333212895,0.7686308745791618,0.8288340775023174,0.7121511671832036,0
429,0.2818576289061681,0.08540177738431193,0.20529385495059072,0.2365724802809403,0
430,-0.30837278775420635,-0.42779373134815896,-0.3720314311806446,-0.3298442546089576,0
431,-0.7838119060904158,-0.7012736487607723,-0.7214383545526216,-0.7366059643658059,0
432,-0.7757249631373132,-0.7004844792698935,-0.7954592966156792,-0.7638934852793815,0
433,-0.6324052057311613,-0.6263154983801966,-0.6923758297262238,-0.7187985630268808,0
434,-0.384425985608807,-0.45519397676320206,-0.331322383962112,-0.38813322193149075,0
435,-0.04832771503949865,-0.19061222500524388,-0.11748602560906621,-0.06095799683617157,0
436,0.08128552683959017,0.2001998131876343,0.136275380814107,0.14666308816335993,0
437,0.30433024064078973,0.323901556658146,0.25680535113258973,0.35121263727069707,0
438,0.3715330514237628,0.299015526441667,0.28727308557696307,0.2670081466793273,0
439,0.22652449981249115,0.2692646627594776,0.26299766480791753,0.3041856949540071,0
440,0.17731030990563193,0.16538138413212303,0.11516970885218844,0.13119364641447342,0
441,-0.012500519364429606,0.06827603986963354,0.14977309869132982,0.02980136152431734,0
442,-0.02725750117769426,-0.06208462753011129,-0.19682114382052873,-0.09276358646403601,0
443,-0.022910747615868643,-0.08015554907848345,-0.1806613417337285,-0.1515988705784858,0
444,-0.16263667715272367,-0.0397884863978034,-0.09533245159458015,-0.18503630505901358,0
445,-0.05792096280416041,-0.09552932881427526,-0.1345710245431302,-0.036471786148581334,0
446,-0.08121594258743713,-0.17151480405421476,-0.04372865436133307,-0.07907801688312809,0
447,0.0175618821175618,-0.032112541158416386,-0.09106469562657117,-0.01693111266094632,0
448,0.0689819274322485,0.0681162488738365,0.06793296032700007,-0.01995806311899707,0
449,0.01274065182603791,0.03605278482058639,0.022192600300539336,0.16394385571773168,0
450,-0.032231401003559645,0.06965749678660643,0.05076642681789756,0.01763062369859516,0
451,-0.02161169820909715,-0.0317471232880185,0.064251931875393,0.06262336705410353,0
452,-0.07053142498721218,0.09176795788871558,0.009464906183315908,0.07481507027639298,0
453,-0.02302742609610381,-0.01724395064479971,0.03555273150051792,0.05276150899926069,0
454,0.025163501079562455,-0.03951047635237536,-0.026841357179908182,-0.03879763925494419,0
455,-0.0108478423229687,-0.019083732595082427,-0.01599091454931361,-0.061367243419011015,0
456,-0.029511783040873197,-0.04926361311288613,0.004482327393425718,-0.11721529574362143,0
457,0.043169134579470594,0.04780153211753146,0.09965737312880314,-0.03748524988390743,0
458,0.05865030696330607,-0.10145153132943878,-0.041904261161435565,0.011693370734924456,0
459,-0.018613029757121844,-0.02570752100098079,-0.07036162645118156,-0.04289427662841755,0
460,-0.05990268760949342,0.06633413743410531,-0.027180441486398508,0.024153506913492946,0
461,-0.07925602198560916,0.004556740417344199,-0.0302512606935763,0.014176499254568138,0
462,0.07540260143160209,-0.008988452601018784,-0.0014199988603517412,-0.034736460529586344,0
463,-0.007221573897690663,0.0067841495355118915,-0.02106607701425367,0.0517751108037886,0
464,-0.12481668256128377,0.011387167467814945,-0.022569141039772988,0.04252095228277884,0
465,0.043885239623915905,-0.07661503207401378,-0.051394686712496675,0.05460746256135546,0
466,-0.0666939362494709,0.04696933424299878,-0.0351938640940352,0.03265707675315199,0
467,0.04925814026297055,0.05249691190953847,-0.012428233323936484,-0.032335827067312715,0
468,-0.07348610217110628,-0.044708587295664244,-0.03505784969782207,0.05614415362309135,0
469,0.03722538217630876,-0.016108403637743723,0.02008795734241972,-0.02491911553523569,0
470,0.03972580107336532,0.1136102921819522,0.028901294890637724,0.047015324780886936,0
471,0.011465390818157445,-0.03786395574903338,-0.05130576682848263,0.08097286256443377,0
472,-0.02531583486267507,-0.01498947201533947,-0.10168404355232648,0.03915841062386438,0
473,0.05832060513008943,-0.0542497076458234,-0.05203632014189147,0.03260399255754517,0
474,0.025036197363073245,-0.002737530279855419,-0.045251166019747345,0.0052963853962646095,0
475,-0.02571240781987174,-0.015390140570981694,0.04407587134714467,-0.0772249320272499,0
476,-0.025931669388081013,-0.003176098697163676,0.019117557865330658,-0.06388925557611487,0
477,0.01196187347602772,-0.049959991935292256,-0.128812301742956,-0.02254064271228443,0
478,-0.03155037353262466,-0.044298848434516515,0.061363085042577994,0.13103560466720046,0
479,-0.021696894373550105,-0.04057987850719209,-0.0505181545279001,-0.08194695958822407,0
480,-0.05737075255577416,-0.07683928575274104,-0.026819086148682388,-0.02885007533177856,0
481,-0.05612163890486388,-0.008335083607859516,0.04506802016223226,-0.04913304713865576,0
482,-0.04622815795868615,-0.018213285984644438,-0.03683555277726191,0.034440160811808555,0
483,-0.08571987428192943,-0.019927069662103104,-0.026162065471909978,0.034736336916345666,0
484,0.01965724474109189,0.09823108408508616,0.05965048366177804,0.017546382892191396,0
485,0.009672272978975962,0.033735423143530986,0.008892034440398653,-0.03789885497824969,0
486,0.00846728182161067,-0.03635508130962079,0.03444434263609302,0.03897196446564214,0
487,0.041001154189746314,0.00641081226575917,-0.11336307778715934,-0.05469284564571232,0
488,0.04707659072294401,0.021107636227868362,-0.07643888666092452,0.018286952536332984,0
489,0.03890290380846055,0.028985026018950946,-0.06454384005622985,-0.04562808499926545,0
490,-0.034823558868064985,-0.07636177246079841,-0.049463575875223334,-0.040772806928917577,0
491,-0.02320422285914066,0.03277058468336402,0.06201700938393594,0.03773382838864835,0
492,-0.058098923281274986,-0.005034195093523843,0.03618672354172098,0.09539239296937249,0
493,0.04975758898140514,0.018854993861872955,-0.011990502112183879,0.017666221192035654,0
494,0.023757801240459044,0.06374599261706937,0.12942488849146289,0.018201553430611198,0
495,0.05248603855723597,0.10761887327471242,-0.044029944374369044,0.03680927461904507,0
496,0.030058933447383966,-0.14134800219993152,-0.01897608004756143,-0.09613537102767454,0
497,-0.0484902578477935,0.014057999648734248,0.05879497542418606,0.015581399613327253,0
498,-0.026100665494166907,0.017661129691165744,-0.030718371898450354,0.007340993597381348,0
499,0.09508428181993923,0.0037428537401878945,0.008622872336245754,0.014297943387649215,0
500,0.02459889965496556,-0.014083065799871064,0.055304930542049595,0.11045341422317773,0
501,0.23622196700396383,0.2162921175813146,0.25871008243882193,0.21805091328415263,0
502,0.5197494162713009,0.4371391540185155,0.4769417563728585,0.46265954726508207,0
503,0.8080394474710989,0.8990652709878736,0.8682159672817187,0.8596406388080094,0
504,1.4953093034430043,1.4706699416395055,1.5253401476424526,1.4661379570501156,0
505,2.186133439687173,2.267748930341413,2.3248660396494123,2.2504977448318644,0
506,3.3593290422684614,3.3036684644643564,3.391458014645943,3.328822637501817,0
507,4.413309634297288,4.3321704293365055,4.445837078443143,4.401324815900846,0
508,5.472715796136154,5.3398163463100285,5.400825640693522,5.4515837947286565,0
509,6.187579084614414,6.202020371040591,6.266017237477196,6.310257672085698,0
510,6.813421431898812,6.851555321185185,6.846449281820674,6.877512625387266,0
511,7.0029533607122,6.94399122410968,6.853800577823983,6.956900238825561,0
512,6.447447466980142,6.328343041074209,6.367391189406028,6.508706845539485,0
513,5.284253980073145,5.349771159087143,5.195081495180878,5.293506677370859,0
514,3.6365024007011453,3.7143610614609575,3.79251844949593,3.761736982511981,0
515,2.0123036282463143,1.993562550799456,1.9679795754065372,1.9565721016663113,0
516,0.1286035561302767,0.06713936810469642,0.0753352844497497,0.08561982248460731,0
517,-1.5881330461020227,-1.4991363682095793,-1.525332082283466,-1.5036980953294636,0
518,-2.575053435492542,-2.6897495709203096,-2.611832940121428,-2.5691672560369647,0
519,-3.030971734095233,-3.0413003239402525,-2.9734331115532475,-3.0163241997190466,0
520,-2.7758340028505106,-2.788009718291364,-2.867063403627625,-2.8922010508636395,0
521,-2.1922230407285603,-2.148927841729323,-2.1770106880170292,-2.152320114747034,0
522,-1.1451593467148848,-1.1422984704797614,-1.0898663569863059,-1.2109772351346673,0
523,-0.01861457797070122,-0.014719252030190214,-0.0417484137982948,-0.0659385658170336,0
524,0.9085910432830224,0.9056722313840622,0.8874830629171394,0.888989471658158,0
525,1.52476965468082,1.4855772487367582,1.4805613091682894,1.4276435260529616,0
526,1.6211630981910028,1.5652998106585936,1.5828814957767916,1.6002528498534887,0
527,1.2977027516871722,1.3600767727724956,1.3687679227593221,1.3517448823111329,0
528,0.8805741728157314,0.8929791646202835,0.8234167327737795,0.9051130304760138,0
529,0.16568602717793096,0.25026326156210366,0.31839546266414587,0.321830359841247,0
530,-0.3104790260233764,-0.23725967494661576,-0.31758462895668166,-0.3151112254422628,0
531,-0.6698076934380459,-0.6334280104159696,-0.607680822113309,-0.6966002681598197,0
532,-0.7356152447903489,-0.7819247496424018,-0.7374688600151176,-0.7424109602050325,0
533,-0.6840804455954288,-0.7041729810765138,-0.7176307204665227,-0.7073808469432907,0
534,-0.3990846756536877,-0.47122656254302936,-0.4959638470791179,-0.3366268872279199,0
535,-0.18385698144821686,-0.11603877900573766,-0.1847588744107091,-0.16955072072810848,0
536,0.1233518854550518,0.05836819422648016,0.06545290731314149,0.040572698518653014,0
537,0.27448657560141165,0.18442590856490776,0.2563648376604377,0.2944750942603374,0
538,0.337144380723845,0.36504044817658615,0.40744170428277515,0.34012482273125855,0
539,0.3340210973196698,0.2902766286110361,0.4560656894098541,0.33230489661379536,0
540,0.22316228331633478,0.14500566335045517,0.16570891242664407,0.11814382273529488,0
541,-0.07382236125718816,0.09866827898817032,0.06295778165576643,0.0783253960096022,0
542,-0.02973407231481882,-0.04864954500829155,0.013857794685358228,-0.027774303780767697,0
543,-0.14401558725834696,-0.061588086639165145,-0.09612777161978978,-0.0776569997615249,0
544,-0.08890448966061913,-0.067676824143077,-0.16506839219286826,-0.09763912533378757,0
545,-0.18702774248718484,0.012675676042271516,-0.034579209096815014,-0.09220419162728194,0
546,-0.13112250685166316,-0.08772486515703772,-0.03078219166022618,-0.08691289196271755,0
547,-0.11186997896324252,-0.15975556065903626,0.04864736183228761,0.03084672544281819,0
548,-0.011868540905497427,0.019942046434120394,-0.005352879512923788,0.0605053852058009,0
549,0.040383943827651,0.06035838186708055,0.06576074618718952,-0.0030262831770940177,0
550,-0.009161926073697896,-0.0016971024797304834,0.05866931435606025,0.13555006970842043,0
551,0.0014426440160032888,0.04582260151717199,0.02817249942137717,0.06983235512015978,0
552,0.03541413522082337,0.07316510412713331,-0.051849653498521886,-0.030979984869142614,0
553,0.0541883830298488,0.004560012243053511,0.10569283412793162,-0.014675413270134488,0
554,-0.03227986703210497,0.030935157610574183,0.02429401734812342,-0.0012029027509012314,0
555,-0.0371017675744798,-0.004352959030746428,-0.15991307912639915,0.030311957874926115,0
556,-0.05063008270498753,-0.03119305032930495,0.03412090429138094,0.014931418492633226,0
557,-0.01727861747228347,-0.012923251504442058,0.028213438376012045,-0.07874861824962143,0
558,-0.047610248902259254,0.023384507215449685,0.003782862410198315,-0.04221725782404312,0
559,-0.007904949265177805,-0.047361062906240856,0.007665747902268692,-0.03553550864614062,0
560,-0.018500301878541642,0.030744057945620837,0.02659570091706209,-0.049655436390022845,0
561,-0.03537534934326158,0.028374626960680587,0.0453793879556974,0.03929851413645333,0
562,0.06161626185697647,-0.032325966356166976,0.04864723131668342,0.016137106805744674,0
563,-0.028121675529971087,0.07683678656987081,0.02933814001238438,-0.03674267125241893,0
564,-0.00026595299815116,0.015623439138648809,0.013943597368730413,0.0016239732706798233,0
565,-0.06777039901901742,0.0609735735395107,-0.050556072960420494,-0.02103240214842947,0
566,-0.040376760470969,-0.0019058084694227003,-0.04524708734804116,0.006469682862811805,0
567,-0.04878923619322219,0.01965800637057799,-0.06436965012040574,0.010895792547860304,0
568,0.03973772117730693,-0.042098634449899884,0.07413647931952924,0.012029232603063475,0
569,-0.005951491003520496,-0.06484464849121079,-0.011031596565564728,-0.07967023799897326,0
570,-0.07978401732161461,-0.047273379839436074,0.07014906914956155,-0.02298348673541396,0
571,-0.00039070249188908674,0.042664076317911144,0.03284640421754919,0.0011859930378990537,0
572,-0.09516333780635813,-0.05777582867754111,0.056302638399478765,0.06336706560753996,0
573,0.030112394587199838,-0.09037169889938289,0.03313822107578939,-0.09375043625623927,0
574,-0.08167462360018728,-0.029129884721223267,0.045152546747075174,0.01889441893108578,0
575,0.0076467169922093976,-0.0038755792235729523,0.02267751920406493,0.03741381388894369,0
576,0.072268111267384,0.016779141992424314,-0.0075968454612707365,-0.01894616038202748,0
577,-0.043465890361703154,0.0032846911286920494,-0.0517139540741155,0.12888114709728374,0
578,-0.08639860710451987,0.03885830403609369,0.03127069315633993,0.0038951061682703917,0
579,-0.009386123651567541,-0.024028250068522446,-0.06901705107266005,0.09972523125862245,0
580,0.0555317515515271,-0.04377151240219691,-0.03838278323770754,-0.0061917384035711795,0
581,0.05543602865328416,0.04136332327770192,0.04549723770299368,-0.09445597229053466,0
582,0.0316475428225416,0.07561293007485019,0.09059917609914765,-0.06297815808455932,0
583,0.009547113298341443,-0.010910398611758989,0.06371088563946535,0.0059257925409798825,0
584,-0.04254536900600711,-0.028575303729773974,0.017334361894312544,0.009162476199305113,0
585,0.011919487100952194,0.029457082993222115,0.007034219508363065,0.004677784855301204,0
586,0.12667039611781888,-0.04486323548066647,0.09837927796577704,-0.027394290313584594,0
587,0.01846077167258909,0.009371913659970574,-0.02696549548330687,-0.0174626700791344,0
588,-0.0007835992273245315,-0.011612387385292394,0.02518535475575236,0.03730225885266292,0
589,-0.04362348936600706,0.017698852299045265,0.05633424858930306,-0.09712843747436856,0
590,0.06707859253308299,0.004195776968005221,0.019347047162317874,-0.03612420943553582,0
591,-0.08812618583043917,0.06496761139082063,-0.008852598905092598,0.06182713033494269,0
592,-0.009345047399254115,0.03522887596753516,0.009819318083064858,-0.052502622565688294,0
593,-0.033389072265798334,0.016814596663478114,0.039723865477821495,-0.06300904527264531,0
594,-0.08720117311110555,0.00898102211886932,0.009878973163270422,-0.04830725708721728,0
595,0.04365189858949758,-0.010319814641459337,-0.014065407196347001,-0.06717735603483155,0
596,-0.007271425198913979,0.038483128300374043,0.024329472474540224,0.002474676060212609,0
597,0.005105379812209209,0.013721420697617472,-0.008170183233056069,-0.05252254582765565,0
598,-0.0988009581437452,0.08431847897534397,-0.056934674702073446,0.012736508018192304,0
599,0.02400416147089148,0.09472413972418045,0.09341244409178609,0.006063412645970921,0
600,0.07685848879055936,0.07982783206377818,0.1379518118078843,0.14913356749499673,0
601,0.2580669302765116,0.16420437978387903,0.20763849163148193,0.25875207591450866,0
602,0.41872727189093223,0.30149085001811005,0.5012383322623137,0.438908106457405,0
603,0.7940678697864589,0.861832056993771,0.8204190584940384,0.8253943031365732,0
604,1.3489351428983238,1.3440434126705334,1.3279133985705378,1.2722165714105647,0
605,2.0777724852889237,2.198663151786607,2.129418123950335,2.113741438760126,0
606,3.1987587014760805,3.0147667871821144,3.1565367486320945,3.039444337518239,0
607,4.072237348666802,4.01711818147445,4.0679407007013255,4.1194605066523735,0
608,5.107130793471186,5.122995255714107,5.128594257638441,5.14453995526399,0
609,6.221802813169072,6.117401988778699,6.097030801477578,6.087558084324328,0
610,6.840525110021556,6.721669240683649,6.84361313409847,6.812543625705666,0
611,7.018360833061073,6.940077431122647,6.968369041529629,6.939383460592628,0
612,6.567224514900173,6.645049721511268,6.5269977081796435,6.547793454956635,0
613,5.546119594754871,5.548934976209548,5.588344330062349,5.664741423327267,0
614,4.117804197452023,4.08103534680959,4.160756024724874,4.175295938068412,0
615,2.3683535249128926,2.325705732382495,2.468655414605281,2.468497760958239,0
616,0.5652744487641091,0.4853033217716269,0.6171396412623587,0.4816195195095215,0
617,-1.1678166970739894,-1.169231971195557,-1.1207934321451811,-1.089869713928451,0
618,-2.3548138394574867,-2.3710499468550337,-2.4742680690454226,-2.439080915655919,0
619,-2.9881583991340777,-2.9997892420374743,-3.022605323483637,-2.9755522154226504,0
620,-2.925432486645442,-2.9152128179614722,-2.9682907776711063,-2.937770473089635,0
621,-2.381365995309053,-2.3246583916957833,-2.227394282891306,-2.447494677646563,0
622,-1.4187096358502456,-1.459750093631643,-1.4438900889701902,-1.4174380683803338,0
623,-0.3696331493356285,-0.2291573330336486,-0.347167840302984,-0.2579022039794511,0
624,0.6717104564857691,0.7546360492397248,0.5999683632345122,0.6999997596111293,0
625,1.2787621704497616,1.4030052693838062,1.4217395959615002,1.4023856857917636,0
626,1.5603566224007652,1.5485410427342967,1.5985502643588891,1.6059508550057122,0
627,1.425783438191455,1.4175538819888232,1.4040457866900053,1.3951026670821012,0
628,1.0040757507421025,0.9138988596202067,0.9850322547085505,0.9012442093462677,0
629,0.5013716831703858,0.35926630812269084,0.49736003299751147,0.43415629576106435,0
630,-0.12171215235676064,-0.12184435743100888,-0.15173945957641138,-0.15888600141070056,0
631,-0.5398263656937841,-0.5929124859218833,-0.5675829975523545,-0.5649795599148414,0
632,-0.833204195588657,-0.7660126226436588,-0.8597620610617903,-0.7726702108159604,0
633,-0.7324728329107553,-0.7215014113420326,-0.7444351462878219,-0.7623036615627627,0
634,-0.47484780996557163,-0.6058294353326555,-0.43031011274577324,-0.48752333523662184,0
635,-0.22305373701767336,-0.2490340584486646,-0.16052623970842322,-0.257366528821726,0
636,-0.019325081164416016,-0.02726584270573272,0.08061984437511055,0.06834751251890657,0
637,0.21126753493635858,0.22279706152680312,0.23426331539939171,0.1578384533906468,0
638,0.2897269509823022,0.30380422823685127,0.27388649305850743,0.3262406319484249,0
639,0.41417363289395454,0.3321897494368345,0.3830446788289377,0.34761342292894687,0
640,0.18895743771962237,0.2041910312286955,0.16634904237086873,0.21184108656835438,0
641,0.1416948427763458,0.046811544057301646,0.12391747564759248,0.07957995180564253,0
642,-0.06049159589261199,-0.023780078745250698,-0.014762969754272371,-0.0006934770392194398,0
643,-0.11302590057119824,-0.050231098713834625,-0.12905648766413036,0.0564237078558843,0
644,-0.16702604146097233,-0.016576445244925686,-0.19594886172697398,-0.021013874461518603,0
645,-0.10847733180289129,-0.09235818077807774,-0.15512801013287236,-0.05022128986375172,0
646,-0.11129250523068163,-0.06714956181831849,-0.06758811353384558,-0.09218232492908632,0
647,-0.06928225426631145,-0.03605536133959148,0.10041268746621249,-0.11036701473107899,0
648,0.036020971430633125,-0.007155337759264708,-0.0605639843768042,0.018478580361639844,0
649,-0.01993300614749578,0.011212464876393526,0.024826507545933314,0.12153732172026857,0
650,-0.021709481503958884,0.060838796805323704,0.08081928377364608,-0.02040020145306224,0
651,0.04390714797681297,-0.01954543442802425,0.08249571734236341,0.005512264989468163,0
652,0.050880537289170705,0.11466114836236647,0.038919181440456696,-0.08345643599235296,0
653,0.026940882545880597,0.0706522990106657,-0.10927692590844663,0.05498142920777392,0
654,-0.028896692934450335,0.0377276902395385,-0.051727717990326876,0.06805210608741169,0
655,-0.08342550350926187,-0.07396178323456093,-0.018278909738051675,-0.028604208119424497,0
656,-0.11071472345725235,0.03486037044343388,-0.025532478526764005,0.0004899309248323708,0
657,0.05924258848898368,-0.0575346902791231,-0.0443699410671927,-0.036225057621936924,0
658,0.02344286662065639,-0.09848386125828329,0.08392571145864952,0.04311146248468815,0
659,-0.014318152917698005,-0.05565343941027726,0.017128820028306655,0.03338189979682303,0
660,0.005481975482216935,0.009037373400617376,0.0821704967202528,-0.03282511623294319,0
661,-0.019795832748647872,0.055337218301985514,0.008561601331586297,-0.03513241074227751,0
662,-0.040443861428119454,-0.020253713214645568,-0.032241418985872586,-0.003629778905511777,0
663,0.020575822271207755,0.010179826589232516,-0.050442163842747724,-0.019504737767853803,0
664,0.003754341296207792,0.043790499333594274,0.03538692127281258,0.06557616157628587,0
665,-0.04158082093440041,0.05710076973301063,-0.009153505350163687,-0.02197511616206744,0
666,0.045938606820077305,-0.010261764836460815,0.030669542594964752,-0.017681705393764534,0
667,-0.01698745405596678,-0.017300972799828413,-0.06337376736439222,-0.035870136668838204,0
668,0.07988585955643589,-0.0658173308897642,-0.04528220803855818,0.0239394378808527,0
669,-0.0997136897872132,-0.001812390267078394,0.08918794468862067,0.011894080938647128,0
670,0.06735542466760722,-0.032684402284276715,0.03067480330838862,-0.0891460460977784,0
671,0.07831161371149196,-0.031913167575548664,-0.060643334574761225,-0.03408068568209104,0
672,0.01603854546195489,-0.011606865957798562,0.0702680297152416,0.010164091763926459,0
673,-0.011782820729962375,-0.020688575294626185,-0.04571159833062539,-0.014302143722323694,0
674,-0.0277435209497036,0.027365682509520546,0.011905799595830019,-0.09524683021972605,0
675,0.04715854568179834,-0.011987756951800765,0.05411457186261879,0.03891714847665764,0
676,-0.014240173019691792,0.04380777375711493,0.026107001559431558,0.01733550611534298,0
677,0.052360373977585806,-0.08159268096764782,0.011315649331752062,0.0247775422928919,0
678,-0.07309812840041528,-0.014147919773787368,-0.10271465203671515,0.08556526186594096,0
679,-0.021012016930041382,0.025045093103483972,0.07212580453322234,-1.195112670660361e-05,0
680,-0.0064106598469333325,0.02397095019940254,-0.023809720571223512,-0.10973285566151549,0
681,0.01060224877471307,0.03823134704825198,0.027581169969535798,0.034362648094248896,0
682,0.007659836565328555,0.08304817539515247,-0.04519493741877178,-0.0595423040270133,0
683,-0.01516191037738189,0.004288473871729684,-0.021753132486923496,-0.10619946603409561,0
684,0.10096098228539561,-0.07978478488213096,-0.07782305669270316,-0.0332751967203135,0
685,-0.03747831139416079,-0.014199669397020604,0.024239051746424174,-0.03454642477637354,0
686,0.0031218620712022095,0.08281366900762059,0.04491539841121754,-0.028997883612309365,0
687,0.04168748176925549,-0.029511933754206146,-0.03674476825675313,-0.04398909931558266,0
688,-0.06695239293108099,0.04150486566102658,-0.10335648358590671,0.06324170903323016,0
689,0.018138847350695642,0.03937542095467654,-0.01673113391594781,0.0157132501548971,0
690,0.004389604015226507,-0.026402179285157472,0.005463099315763058,0.029484106678686974,0
691,0.10398378104673268,0.009063834987978303,0.04350413493789996,0.037458896851938865,0
692,-0.020317062301654823,-0.024737122587097246,-0.05948358209055882,-0.0015919115162329144,0
693,0.027057051060860152,0.025146745542468228,0.0632099315751949,0.018220861868199763,0
694,0.017815729135863087,-0.05494444048117705,-0.059514066973597346,0.042208396519125606,0
695,0.05218595299655081,0.069735142500649,-0.01034976811418248,0.1418226375592293,0
696,-0.018079036937302895,-0.014021713257146112,0.0022083228536800537,0.0046655511282528445,0
697,0.0386137769440771,-0.022789322518168363,0.006959878580248432,0.0036066306902964485,0
698,0.01179076419770982,0.0358089621106608,-0.0008169460934733211,-0.058831508609403615,0
699,-0.009851318362877786,0.0058262309105642,0.01782931414423999,-0.004663159494836762,0
700,0.06226795020186786,0.06116276610152756,0.10578587438362658,0.1185940797121254,0
701,0.14885210821795497,0.09173319431172103,0.10390849785902044,0.14853403599513812,0
702,0.4065796336995721,0.430234625835309,0.40084142179792664,0.4082695624277299,0
703,0.7151451693199162,0.715247181849648,0.6608637781243596,0.6101780487378898,0
704,1.152565151454513,1.161292436607775,1.2204371647792267,1.2900093632630105,0
705,1.9269078002113293,1.8598549857970237,1.92580888053838,1.9020853885388163,0
706,2.8263264435603364,2.8515854471800868,2.8215306900740837,2.746647552938159,0
707,3.894580992520177,3.8570706202857434,3.9115843594790545,3.808313282299428,0
708,4.9174711951892744,4.974723987843016,4.857825662697526,4.984500033177688,0
709,5.923584273996417,5.86732295594358,6.007901814513392,5.940994909873344,0
710,6.627627393549157,6.550968747318183,6.656910840611954,6.686658870282274,0
711,6.94385309356098,6.870052702317128,7.08106005407813,6.938927564228708,0
712,6.658107858164828,6.770933160868552,6.661794578020587,6.759517454761185,0
713,6.00042023538695,5.873562105719786,5.87987185421891,5.9013749274263025,0
714,4.436321151838947,4.606610166922247,4.526630350251311,4.555717775837443,0
715,2.8219969662848396,2.8623813497339725,2.7931495036770384,2.76448710670402,0
716,0.932239620906792,0.9348027646645246,0.9343586992378309,0.9562151833746371,0
717,-0.8122238462525773,-0.8416843965225672,-0.746774494775159,-0.8443767688728824,0
718,-2.1361085523021908,-2.096164470992969,-2.049010200748154,-2.120709019697298,0
719,-2.886787026457731,-2.8333737581992664,-2.7875757118129325,-2.8404789367502046,0
720,-2.8549708381907566,-2.930024928708944,-2.9805389907283013,-2.8606002679300473,0
721,-2.5316475323857714,-2.5217314037372707,-2.5406210654991006,-2.432143340880069,0
722,-1.6792109755386835,-1.6289641432752993,-1.6749782324913969,-1.648456312387383,0
723,-0.5467214631206881,-0.5618810165072969,-0.47581576996397856,-0.4951767319556115,0
724,0.4088574390000511,0.4896131176420803,0.5083842725275557,0.39571998608687353,0
725,1.2758075800206443,1.2478455623481997,1.195031571642753,1.3438666347264583,0
726,1.5576026149106377,1.6361575628411142,1.598763043481412,1.6003285382562509,0
727,1.5740787419892628,1.503476388782511,1.4864113202117633,1.4624372419692666,0
728,1.1221914864579576,1.171370523910455,1.1440635287411545,1.1044021947422291,0
729,0.604152408933322,0.5137125289618513,0.5796997135970904,0.6682141934557924,0
730,0.012638023789129586,0.014987876874017363,-0.051564670318171135,0.06056470039605871,0
731,-0.4881930802916069,-0.4498666063666716,-0.44848873976564496,-0.4342671637818358,0
732,-0.7864744360270087,-0.762984004781853,-0.7805995077176318,-0.7424295773354217,0
733,-0.7864780100576467,-0.8379798518890731,-0.823308084139557,-0.7108726188817309,0
734,-0.5454943655373854,-0.599556711919234,-0.5729906043473673,-0.5673334909195588,0
735,-0.34991549957383533,-0.23089877650545215,-0.23672392829734107,-0.33070803493793133,0
736,-0.049232396552923975,-0.035212635586212564,-0.10422038324398517,-0.04687806774114976,0
737,-0.008425220443738973,0.11750845871906518,0.14944927212843107,0.2440507967848235,0
738,0.3511640702899032,0.28001950266195963,0.3104942774041142,0.29494054817746496,0
739,0.2952195387556401,0.4174996307669734,0.3408150010488726,0.3961638537173768,0
740,0.26075167429849244,0.20699040229876214,0.24961845634907656,0.27116243109157734,0
741,0.21287957797479673,0.17036955080187466,0.029405321488373437,0.09931258337036082,0
742,0.07002096994399569,0.07106482014766219,-0.030304900104927857,0.04351413292697924,0
743,-0.03275133380007323,0.03574588203537328,-0.11730781107759228,-0.18722087659086095,0
744,-0.03251987553438841,-0.06983625822481979,-0.11722144069565807,-0.22326870169496257,0
745,-0.09248113129483049,-0.18002632619532308,-0.16035033399996917,-0.10939561267042681,0
746,-0.0728823577310678,0.01814101267751482,-0.027375366742877535,-0.06460225576483855,0
747,-0.06651457249607218,-0.034860931905166585,-0.05445306202894466,-0.01975391161507123,0
748,-0.021488131267478502,-0.00581518142952929,0.021120744793849903,0.04390029878423093,0
749,-0.02276481839351167,-0.01603218043074783,-0.0337620363810574,-0.09678883241434524,0
750,0.09908718070916381,-0.01398588126884446,0.05024798508468038,0.04388806743660177,0
751,0.012141688743413079,0.03897298528931724,0.003228051169460202,-0.019941513115076755,0
752,0.01815653589870001,0.07726613489443064,-0.019333008603524094,0.0809999670369675,0
753,-0.04046550379867504,0.030907343029799687,0.05285320074650945,0.03200126002481368,0
754,-0.06734132575950533,0.033534392701765364,-0.03085648039366292,0.0012310571580781851,0
755,-0.04102678070374721,0.02317301903805397,-0.00850438510150424,-0.07975902006429449,0
756,-0.049056947023834924,-0.01487261038879956,0.00752697987155923,-0.01733624690777624,0
757,0.04380049061913151,0.04482659666556092,-0.01096404546477817,-0.06391182694282624,0
758,-0.003092640951259163,0.05143843964762445,0.051834169278712976,-0.07403477064654906,0
759,0.05368576017712558,-0.0074986102305343175,-0.0857742105713433,-0.012993699664519048,0
760,0.07231091580828122,0.03144670191176901,0.015598278636117732,0.015149823118666961,0
761,-0.010682914836909424,0.009286986209498325,0.02839355032942493,-0.026816555503129592,0
762,-0.019146696315697456,-0.006661112485709445,-0.06537465948097515,-0.010190312257234409,0
763,-0.003157527191173014,0.06547774615568171,0.03521322410861418,0.0008595382823423983,0
764,0.031255647448496446,0.019967652060872004,0.12037494738824975,-0.09582368678670035,0
765,0.06150935533672026,0.003106849529289898,0.046722552879161126,0.105613297747343,0
766,-0.05834038726897981,0.02831770464100463,-0.0322417969237763,-0.02050943261318347,0
767,-0.022418428415864073,-0.028447971035184594,-0.02419986474178068,-0.03289973450523307,0
768,-0.04410954026345932,-0.005266432377722115,0.009443077821207884,-0.0030345105516034663,0
769,0.0889499710411263,0.043950174008781526,-0.10028353936501049,-0.0063802642646886495,0
770,-0.08653616207915674,0.028024212543324375,0.003459576107251434,0.009668752971701031,0
771,-0.029439420997195712,0.0260933586468385,-0.0626610461378714,0.04445501996293733,0
772,0.018480645803541897,0.0025536074399759223,0.02253638414714147,-0.026848724843921527,0
773,-0.038464549516522416,0.02243119353022414,0.00023181944840081767,0.02099329340029601,0
774,-0.028461268733560904,-0.027133291977468405,0.03300559050697027,0.03404589116204732,0
775,0.004770516772753361,-0.004714489374392376,0.004927972313643191,-0.06077936784440649,0
776,-0.05612398280527431,-0.028636448880371576,-0.01869266824124635,-0.07162761960479043,0
777,0.017799418136867067,-0.0961834534330964,0.09180627752570256,-0.0016289923862094142,0
778,-0.012372171455024117,-0.011868505604033632,0.06627272342750005,-0.032418481775672185,0
779,-0.03152139913251322,0.035661558172049385,-0.04131967003561555,-3.0502622750293296e-05,0
780,0.028649343591049547,0.036094050135061034,0.07247294512065416,-0.052984626405813987,0
781,0.02923162495143335,-0.01568224763150592,-0.04769996114507854,0.02837235955834456,0
782,-0.05271270147748089,-0.05786407728280187,-0.0343758074894202,0.04904515030443332,0
783,-0.07065920117315036,-0.017419361197409663,-0.04133186014828374,0.13237491172890103,0
784,-0.09672783530930974,0.024888929297117945,-0.021755420421184106,0.05533537401671896,0
785,0.016840385304124593,0.005912823470015026,-0.03099480935868859,0.0012643384793910894,0
786,0.04688758664544149,-0.09672451856638371,-0.1358216453066438,-0.011156083527861455,0
787,0.03508763378317983,-0.03319290465908867,-0.006426585286411955,-0.05900315310060847,0
788,-0.036929922122262704,0.05572651189115681,0.10063772220587726,-0.03385394240018556,0
789,-0.03947644042121496,-0.015563186376674181,0.0433143942993669,-0.022161686342946112,0
790,-0.12132102109013342,-0.005714943534853942,0.047807490314566006,0.018026184588460222,0
791,-0.06220942654819906,0.08924940086749693,-0.04156561044012698,0.04438694384339707,0
792,-0.06061070417207294,-0.0035777820578664753,-0.03828338830506422,0.02590543024631996,0
793,0.007624902555413364,-0.05364160502500875,0.04649194188567066,-0.04683053868584836,0
794,-0.07962934008236085,-0.033088725221428826,0.05580731990515794,0.03734036824641173,0
795,0.028414076092129863,0.07438712007525454,0.07377227578246724,0.014282761138367232,0
796,0.018223528341855914,0.05519637307756525,-0.006512096653306847,0.008202397742364724,0
797,-0.0034496688646720947,-0.05347790595675596,0.03711897138498956,-0.01587349713547434,0
798,0.05969529718223822,-0.013938001314902282,-0.003936302951488531,0.05401987424583746,0
799,-0.09003448938352138,-0.0405799101144962,0.03818770378684464,-0.058995054801398585,0
800,0.08039121112211461,0.09063206620757835,0.05739926783597841,-0.00744015096436549,0
801,0.06327647812436579,0.14937481378676656,0.15664721175339216,0.01999434366091353,0
802,0.3084334483237528,0.31456613695468244,0.2784917194108961,0.37176545957058843,0
803,0.6385354145848446,0.6540759780839753,0.5859307800076283,0.5898981245483953,0
804,0.9683868887599175,1.0997738475674856,1.0937451350004521,1.0726004659090336,0
805,1.7191437368529459,1.7313516145669694,1.639648459663149,1.7953649754280396,0
806,2.654887559391386,2.582852949468707,2.6064889279722196,2.660797166742244,0
807,3.5908783468592134,3.6269477087122644,3.6861402427081176,3.666392433366827,0
808,4.698327576772541,4.725047749174815,4.677450115598816,4.656161494663912,0
809,5.688169094849622,5.6868852975628075,5.725721897476841,5.720933717205836,0
810,6.428941986365502,6.4825706469190605,6.50715341760214,6.461382820775978,0
811,6.956967495544853,6.911768257028973,6.955164497777749,6.944832129469876,0
812,6.802215410310134,6.857507723626833,6.952375012512488,6.798755379553052,0
813,6.183925760747852,6.194576243170604,6.203490730486425,6.131797087513981,0
814,4.878533128458432,4.933446512588171,4.844971065650881,4.822952931039151,0
815,3.2869023100369783,3.2838531517568375,3.2160656674354318,3.19688208255065,0
816,1.3399950992410472,1.4222390195021128,1.363445879288903,1.4200196727043315,0
817,-0.4012877147485457,-0.4122708830814729,-0.40834536686090755,-0.3522460824706414,0
818,-1.9528625803321193,-1.8211202557516557,-1.8571129412358318,-1.9331286887493868,0
819,-2.8463364045499806,-2.836973595451626,-2.787651337315786,-2.819193760962191,0
820,-3.004628962435894,-3.1162316080793615,-2.9865424985956843,-2.978298715874694,0
821,-2.66450610987628,-2.694842854872795,-2.6415034497120704,-2.635709018190746,0
822,-1.8703838518820208,-1.98162871803431,-1.937152553544481,-1.9075086489474538,0
823,-0.8551913862353708,-0.8263131205801838,-0.8944682594765618,-0.9156625596508912,0
824,0.22930581693349258,0.2903180963531177,0.17983492105059212,0.3437714390844673,0
825,1.1179327290757468,1.1676303213850967,1.1215145312215093,1.1785749308195543,0
826,1.5327752088821223,1.574984830494228,1.4714435862178887,1.53617725517096,0
827,1.6323743600348317,1.520805759609986,1.5651988339557859,1.5570034870519465,0
828,1.1662796471377188,1.197694180480277,1.1929305805954649,1.2169774317625726,0
829,0.7665340433006752,0.8164450840914802,0.6816608054275387,0.7510039405680142,0
830,0.1331941876852541,0.151921419646566,0.18042554204753772,0.19156734229807965,0
831,-0.4903144357670647,-0.35703856957709035,-0.3110418880214739,-0.3910570299715202,0
832,-0.6857585289585099,-0.7097644935461072,-0.7842087517284633,-0.7315548058189432,0
833,-0.8334524589754455,-0.7831109055809032,-0.7884635971492503,-0.869587823184734,0
834,-0.6754715058992484,-0.5904983216456784,-0.5851745636434916,-0.6378617873439179,0
835,-0.37797021682519205,-0.388659637432312,-0.4109318155312641,-0.3233086255450772,0
836,-0.041629499028726764,-0.01298715340306246,-0.042108155462763405,-0.1711282426969884,0
837,0.19284518939206577,0.16058987168674654,0.18530080679978778,0.07560615231603893,0
838,0.28051239087307056,0.2717407950482453,0.267542218434167,0.24931362623686176,0
839,0.2951380959226193,0.28162976715345533,0.374521389445323,0.3425710741312832,0
840,0.2968475981213269,0.25960785481969767,0.24390818126335667,0.20124631339185128,0
841,0.09447161534051828,0.15973551147488804,0.13918733603624453,0.1164584409138532,0
842,0.14632717924369487,0.039167434584373016,-0.013022138188029372,0.10997536730340039,0
843,-0.05787435141088941,-0.11917601259796481,-0.029894218527791717,-0.109871713115575,0
844,-0.0833612997721829,-0.09034622261232744,-0.05097420528336497,-0.06603883862587887,0
845,-0.07253045960519879,-0.16732977974919017,-0.11822240020097871,-0.1188861410102777,0
846,-0.06598098775583777,-0.07382246603444488,-0.08549874293845164,-0.0594865801435613,0
847,-0.006867994013389819,-0.01245232989181095,0.09077635242700322,-0.11531833752405779,0
848,-0.03171205027699993,-0.04261113509764526,0.033712000228225396,0.006197633878591678,0
849,-0.02564220181948115,0.024461145376899248,0.025608508478182388,0.04050827063416006,0
850,-0.046156621381726,-0.0022613055264103024,0.067926757867525,0.05298860278965689,0
851,0.04818492478693809,0.0710393749125684,0.10670295662205392,0.01522275188257961,0
852,0.11919732469765133,-0.022262314539482766,-0.016377970625018095,0.06662854433551295,0
853,0.005869853465059511,0.02470302285750165,0.05731078917082849,0.07272523576958356,0
854,0.027813695109458827,-0.09726700436491896,-0.045705155638394696,-0.046740284444573676,0
855,-0.01245132602791189,-0.015429168304808012,0.015224170331948114,-0.06588037806988783,0
856,-0.029927969951778412,-0.023809710439059918,-0.016845743053083374,0.08088649298767195,0
857,-0.018253444093431322,-0.0446445689181957,-0.025881393936469797,-0.014006344202354241,0
858,0.07733981128022939,0.013197883944104177,-0.019641585501859838,-0.09127822457357797,0
859,0.08766137195917009,0.02425579319681839,-0.06708663654945692,0.0034473895095351063,0
860,-0.03367794371253657,-0.004221152486927886,-0.004494632661493683,-0.06327341916897394,0
861,-0.07336348185339588,-0.07101177084394751,0.1325389952007868,0.10748832892744827,0
862,-0.022471809137413798,-0.08825537401124373,0.005763140591993747,-0.037923831347230236,0
863,-0.058230733299566476,-0.003822730743377616,-0.07531412467498726,0.04816440409840154,0
864,0.026240712189564985,0.08446419669176379,-0.00027046836560901816,0.03311846247138447,0
865,0.07685818341829208,0.09640377256819438,0.03942100551406265,-0.013634871239981198,0
866,-0.0898129799578106,0.07107588782254444,-0.02241681912518374,0.03640902956070067,0
867,-0.04072279187086403,0.045370555558683266,0.023373090116256292,0.03647177448498255,0
868,0.009641426658385747,-0.06968392976966115,0.00020364762519717246,-0.07457272437531819,0
869,-0.027026940865371978,0.09211205540923906,0.03647420414934576,-0.003724907374141364,0
870,0.016661308057526397,-0.0015703120843288609,0.006754732054861897,0.05779023696846404,0
871,0.05908760412916261,0.05061671822446361,0.016834444072561672,0.05430036538420802,0
872,0.012426359074661567,-0.005677660522479218,-0.012129647412102948,0.011855704388788725,0
873,-0.049316749315179056,0.0030975826568569896,-0.05844779475366904,-0.09087473335910987,0
874,0.030388245497745436,0.02755764516992882,0.059737028211449245,-0.053660962022367524,0
875,-0.018464241944111212,0.07058676546613422,-0.02089393985439304,0.014810435230756138,0
876,-0.048806050040339805,0.03189585768926101,-0.02652175007112184,-0.02146050836690707,0
877,0.03270424020045743,0.06656723449781025,-0.09416970401882185,-0.0024839662118450417,0
878,0.017594154420235684,0.042108865590646555,-0.041149162815570274,-0.030526397062585562,0
879,0.0317076911435951,0.02193571609261859,-0.023704542572525335,-0.03966759940446387,0
880,0.09395540528327533,0.04502379790872286,0.023815158686013537,-0.012272783528254446,0
881,0.08743161381150973,-0.02577723999434762,-0.0794618349761914,0.016433072162486316,0
882,-0.007570598028993877,0.002715956475397281,0.043528944741740204,-0.051454378801339115,0
883,-0.05693926500924016,-0.02448187448675653,-0.06156657296174814,0.1118990285537006,0
884,0.007119168842614529,-0.003324284118752159,-0.0649923488206563,0.05658559301622819,0
885,0.0559336324874056,-0.10401590679806494,0.029814439717648647,0.071005034826131,0
886,-0.039827361838641974,0.14290965089824217,-0.09575573798183824,-0.001757165311375644,0
887,-0.06691586142602352,-0.06244977685485547,0.006068516888510994,0.00028567018402695765,0
888,0.06487328205569647,0.011803165490899667,0.02581971539663248,-0.01701350158865207,0
889,0.033029962854903755,-0.032596424476250774,0.09377308551263236,0.05454739887129951,0
890,0.04268511565596784,-0.0491845197312958,-0.049744768772510765,0.011361851092325395,0
891,0.04330601815979179,-0.07169838800586154,-0.025310960341650358,-0.035571062894971195,0
892,0.035853847688186835,-0.00040950704795345385,-0.11041097532914906,-0.05881862971243815,0
893,0.05269040249043556,0.033052896669182576,0.11349500010017594,0.009866301235215917,0
894,0.029823352322232283,0.002447988714519066,-0.024877931849872702,-0.0050033288997167625,0
895,0.003272322329233061,-0.11411066355817008,0.08821098333139428,0.005339398671128294,0
896,-0.020390547175766518,0.022634858989595365,-0.08400758059134018,0.03453230807672852,0
897,-0.061601578338077924,-0.012094726191071131,0.039826644923319346,0.05223582973024583,0
898,0.002740700424961125,-0.0023372223612370124,-0.021715902956172747,0.01640093783522414,0
899,0.021169586435021537,-0.09046218909159635,-0.004217469796859536,0.00954062286233349,0
900,0.009237267335441559,-0.018286418898296845,0.03423019836248292,0.0448697612825054,0
901,0.08653227933987442,0.1006931896494673,0.005574362821081813,0.09951231728464184,0
902,0.3538088257356915,0.21099360840395295,0.2942508454067393,0.2605942673257068,0
903,0.5287960767844169,0.535613782571032,0.6051593388677498,0.5816689354663742,0
904,0.9548560458778537,0.9418379882600781,0.9126103217322652,0.9123716263309812,0
905,1.5902608817996189,1.6344730837511925,1.5219202903627818,1.5219320490057906,0
906,2.375964679446838,2.364720003619032,2.2061165705231756,2.4049847512826825,0
907,3.3168603051188783,3.3552844650863753,3.3906186697698053,3.332995586379119,0
908,4.461864365024222,4.407531364783183,4.484436027036289,4.358061187710206,0
909,5.473311769192768,5.579343470936476,5.517917600478995,5.5031218460845635,0
910,6.277415085570928,6.238022994757618,6.413182689672964,6.3593315389217695,0
911,6.865669576070936,6.919464434870096,6.85054379682225,6.881057567188785,0
912,6.924252999994224,6.970182216714181,6.978435834618673,6.925725529187882,0
913,6.406475965156979,6.40817107557573,6.355062749167546,6.3048263954261365,0
914,5.160259719505632,5.215552704181272,5.252696172714829,5.200882435746548,0
915,3.599456090539306,3.6612630715604295,3.6978704749987377,3.6499063116095787,0
916,1.7569462064605537,1.882249367044023,1.9131272253632465,1.8184890093969366,0
917,-0.06868531766988799,-0.005075197968356704,0.024407218744465817,0.037441787263579586,0
918,-1.525354250188581,-1.576813070673494,-1.563904360520047,-1.6461883779177846,0
919,-2.6307210462018427,-2.7244442396894217,-2.6084855901310076,-2.7169491040593132,0
920,-2.978987047627861,-2.9707847162613956,-3.0304153858450222,-2.968401125793304,0
921,-2.7420541289850866,-2.7055071821621737,-2.7702760922326677,-2.706813893342681,0
922,-2.0822954009627432,-2.0547931434250324,-2.044695388305683,-2.1238196868561596,0
923,-1.1123418110104077,-1.0187435010241683,-1.0471726547151576,-1.1010919424992505,0
924,-0.011129971603441018,-0.019219885800150556,0.1698263696849114,0.15091480033883056,0
925,0.8748793940181595,0.9944020260628814,0.8834376613621335,0.8797781023191205,0
926,1.4912247816488833,1.4391506173931363,1.4596157990638108,1.5607793075748908,0
927,1.5803780199801094,1.5157872660928127,1.6147970581967062,1.6824413674736045,0
928,1.2587300521147726,1.2639829922913157,1.3647582794529165,1.3078231410429548,0
929,0.7957663015486882,0.8924163292869501,0.8236622530717891,0.8572669465972423,0
930,0.26249395490446037,0.26441274402244075,0.2938083375506515,0.2241565557651705,0
931,-0.19536959037670829,-0.31313265606789564,-0.27875559521088333,-0.23264614383181043,0
932,-0.7319287754260301,-0.5663196510829268,-0.6198303637178189,-0.6192324668944379,0
933,-0.7833330585926577,-0.8730894347082938,-0.7757320374601246,-0.7152188004597927,0
934,-0.7210086585531791,-0.7885625115078215,-0.6182957247474874,-0.7060766914061176,0
935,-0.495616892047502,-0.4052064097468851,-0.40023741340571783,-0.4289445091622227,0
936,-0.09137999893562426,-0.15431282375883362,-0.10738234116933104,-0.30121397927212845,0
937,0.19878756777811657,0.044131283563315554,0.17180944287003447,0.032449768214563864,0
938,0.2762343798444614,0.24429274623271197,0.3165830302642259,0.1973234726549421,0
939,0.2896186851518951,0.35116567235928137,0.3569684541652209,0.2795056238032681,0
940,0.3527750973006075,0.32565377231500475,0.23959290519096008,0.26492638617153663,0
941,0.19420018929134095,0.17066479469504722,0.17821143880559925,0.23511226787007125,0
942,0.09767637905154883,0.050661023232196685,0.15726343200628579,-0.031733053182108596,0
943,0.018351750240748227,-0.07728880916407768,-0.04464197994683423,0.03420144957956459,0
944,-0.05164551823160184,-0.07992846202373019,-0.08687636351563667,-0.18324848850244663,0
945,-0.07100550331173897,-0.21060590688846376,-0.1488464050410796,-0.05015695138617484,0
946,-0.168659975593702,-0.09698173790054401,-0.1292587930136545,-0.05446550886857403,0
947,-0.027405550389010797,0.01577512357118354,-0.06794104223912935,-0.06394645353189152,0
948,-0.04412710452911024,0.036900637573543046,-0.06669144491009854,0.05498407127394506,0
949,0.038244339404362615,0.05336745335870227,0.011657707849389187,-0.03595018732989862,0
950,0.03422082242992983,-0.027167899779883507,0.025237016700123314,-0.06980673990177713,0
951,0.07805020899948996,0.04623239319742602,0.013276804587737397,0.017997938194201018,0
952,0.055575699918856976,0.15710127576888866,0.018482743355519943,0.09414430660054517,0
953,-0.06357276766092618,0.01705972282056027,-0.01798605746082757,-0.044488176128515085,0
954,-0.04123098081615349,-0.041423769600478694,-0.03368727511494163,-0.02159081353259444,0
955,0.04183931269831036,-0.050703992499424054,-0.004514423362538115,-0.054134316551757725,0
956,-0.028195508932060843,-0.00643025809387706,-0.03419825089669364,-0.015092656741513884,0
957,0.04419696350250771,-0.0818077794697861,-0.020140433234627508,0.008450188865117154,0
958,0.0038226901356130114,0.05842784043757475,-0.03317507631682147,-0.021983496850719333,0
959,-0.01653449951714354,-0.04159162694295009,0.003632483046447345,0.04750515981203628,0
960,0.026535326512537236,-0.029539095171956166,0.020849814241113363,0.08986510064049542,0
961,-0.00678368118393045,-0.06905237698944523,-0.0629441136444351,0.018549610656934768,0
962,0.03822781580081219,0.002994305006705316,0.023902108945224407,0.10025060268679022,0
963,-0.0183857675532662,0.023197640994736077,-0.12271650617987072,0.03683540327742847,0
964,-0.07623059615492088,0.037741050713002114,-0.003185385051785095,0.032246307822735965,0
965,0.03826142543944898,0.0011970049977693344,0.046239813649511095,0.042240444857950275,0
966,0.035750821003367794,0.15861621573177703,-0.04039641988500416,-0.0008904719027466757,0
967,0.007412631010056261,0.1261937934179092,-0.005396456323252547,-0.007893725361377434,0
968,0.04037861854120539,-0.05899884206364241,0.0019113445036090387,0.025072373015987182,0
969,-0.09184334424735915,-0.03166929741690213,0.028550290878526317,-0.02449759499035936,0
970,-0.025791076614907125,-0.04374991742758688,-0.10343558571064991,0.07402230238164807,0
971,-0.02384361915662952,0.05509283004487924,-0.019528258883852616,0.0030157313452126716,0
972,-0.011791183552093649,-0.06721302933341505,-0.011717803441169313,0.027567432964278164,0
973,-0.029095186419224272,0.04355499125131472,0.05273123880277869,-0.0064632861414451875,0
974,-0.0020821482193500783,-0.015815385727610837,0.0021607096579749885,-0.07985891453956762,0
975,-0.016129284717676044,0.07312972857045578,-0.010288499007298233,0.07610085964632803,0
976,-0.005328316881858186,-0.04133815535065507,-0.07110117074401187,0.01151789314531747,0
977,-0.06419169746714,-0.0035257281333744427,-0.04327734206676213,0.014363209073646528,0
978,-0.028918714750687684,-0.045901733732156315,0.0316216477834179,-0.014802845972380576,0
979,-0.029638871519847544,0.10021616733051773,-0.06539711996396741,-0.04758055564175664,0
980,-0.012698567660857602,-0.021140205659434877,0.051258023337497995,0.06929181667892557,0
981,-0.06086579301658655,-0.036977351454283394,-0.10760175843355121,0.04804008209912494,0
982,0.00020606805537675053,-0.1023048504079602,-0.04370512403656237,-0.03375357894095631,0
983,-0.02846626533641622,-0.05830442609277307,-0.08110736674218837,0.05132235451921354,0
984,-0.05499969652363218,-0.03484292632293039,-0.03474235576207904,-0.026657977051196213,0
985,-0.0996373090751092,-0.012095021707844619,0.05735214525117512,-0.0046817245377286515,0
986,0.0882354925810162,0.009472842771527835,-0.1132300121047932,0.0386965590342466,0
987,-0.04825445575426602,0.025621789880926265,-0.013946770874382895,-0.007591371487344818,0
988,0.02435454273014147,-0.08178832327804432,-0.06695459665045939,0.044519931027114684,0
989,0.027236773070209313,0.011190617948421676,-0.0782797952021288,0.07762866976740541,0
990,-0.00958219399856247,0.006203329017288077,-0.10392239441997703,0.05351476672856197,0
991,-0.02909240417379246,0.07081369951258698,0.02447024378763417,0.0655930073401092,0
992,-0.04592765858823828,-0.03553291506766714,0.03355929244418907,0.026849176985582278,0
993,0.056308673788771225,-0.011158840863752068,0.028163285736269285,-0.048316880553904845,0
994,0.01257300221493195,0.02031472079662435,0.026098498623239232,-0.12217331423661185,0
995,-0.006807404709276666,0.040990588099121296,0.007052338450102374,0.026466460727231897,0
996,0.02760226523553918,-0.08018264834660367,-0.02148749258466006,0.07696053634729415,0
997,-0.04406643768601609,0.0034263371199424525,-0.04391803458936138,-0.004241145423727031,0
998,0.01957215299318623,0.07003365205834557,-0.009418552605577881,-0.0030243226495063453,0
999,0.06671576326631182,-0.08008811787997032,0.06723015884043032,-0.024614459838577556,0
