timestamp,value-0,value-1,is_anomaly
0,0.20461608357473907,0.3028245170596609,0
1,0.34381937067965296,0.45190127799319313,0
2,0.6425093718289882,0.7293973322402638,0
3,1.1472773131256986,0.9553333018739454,0
4,1.7145458384784316,1.718506835188872,0
5,2.517245713657682,2.5309087436942974,0
6,3.294093832220528,3.2395574925053485,0
7,4.23057092533611,4.190681992521454,0
8,4.899074420627593,5.00226685578143,0
9,5.81571490446238,5.632185884213802,0
10,6.351830045274334,6.428665334709486,0
11,6.944356511760207,6.920025633206216,0
12,6.937974034615785,6.906582099307331,0
13,6.699896394405699,6.772584865121004,0
14,6.116385942723714,5.957659982325453,0
15,5.037785104209517,4.989820554091193,0
16,3.801918783473382,3.542895401035812,0
17,2.340308554670616,2.38009018040132,0
18,0.8246437322112325,0.8813205469061541,0
19,-0.5246537334229212,-0.5649262660615749,0
20,-1.7637830124184384,-1.8370173696020202,0
21,-2.7215643195618755,-2.5436078071495785,0
22,-2.9302276008271684,-2.9145203724481097,0
23,-2.944127946335368,-2.9228908886275047,0
24,-2.552848319921977,-2.775565207257177,0
25,-1.9524852094109248,-1.9601096378283767,0
26,-1.0705172573797272,-1.2406647605991734,0
27,-0.2997036516308334,-0.3115018315195043,0
28,0.6195971461501321,0.480637336899882,0
29,1.2686542530883993,1.0597653444043496,0
30,1.4821380762142737,1.4039021093386532,0
31,1.5293579329261067,1.6107552902539628,0
32,1.4107192973873153,1.3133620594237665,0
33,1.0978086022662568,1.0044943215239415,0
34,0.5252710940774665,0.6132375979442088,0
35,0.24715306492002134,-0.03338990041149986,0
36,-0.2984755347608413,-0.2968919134686752,0
37,-0.5568202035845822,-0.502976326438287,0
38,-0.7685225273922226,-0.6638191280936153,0
39,-0.7430595124079263,-0.6725627568882336,0
40,-0.6701585123966525,-0.7200167012969555,0
41,-0.44872858219012435,-0.5592102359039529,0
42,-0.2540584702718629,-0.336179300069671,0
43,0.007717050855424887,-0.20438833404119744,0
44,0.21566046747882237,0.1984072895635804,0
45,0.28451304178065023,0.44099930149969346,0
46,0.31628938391375166,0.1065363044933014,0
47,0.29092111299846896,0.2407288902487441,0
48,0.2082097382101709,0.2058609590534316,0
49,0.16858610312127503,0.14264335132641573,0
50,0.05421936758360256,0.15066566297683442,0
51,0.013086468631395162,-0.09332386357007721,0
52,-0.19912412966860676,-0.01483732158375832,0
53,-0.13267833135723148,0.019443139542951987,0
54,-0.17865751255103324,-0.04944245473372443,0
55,-0.11377921891398529,-0.07562671434378235,0
56,-0.054441382872920455,-0.1558612192883673,0
57,-0.05579156751349085,-0.11668380417701296,0
58,0.03908211534954279,-0.07307535534073477,0
59,0.04557586100502363,-0.02974339347927494,0
60,0.04736369478420666,0.14004696173769562,0
61,0.04877033135248758,-0.10612476320929401,0
62,0.010224992088687967,-0.0579217936098677,0
63,-0.021543745545232442,-0.09935467540144889,0
64,0.024211515911612684,0.07487392112279159,0
65,0.08624712747277292,0.11754052084372729,0
66,0.0395305307768067,-0.1852967007515651,0
67,-0.08291633071215448,0.12102636574999147,0
68,0.054302190780305064,-0.06937687673588075,0
69,-0.057494314455177,0.013182350025872026,0
70,-0.05643042043239323,0.03773422157708429,0
71,0.001943389161707231,0.0828570860276322,0
72,0.039982105334044234,-0.07627382287202848,0
73,0.03258246836242738,-0.0032618541456354263,0
74,-0.007172523955935137,0.018830175843685907,0
75,-0.05152094114207284,0.13628316330353593,0
76,0.03547826788732397,-0.013382092924477184,0
77,0.03188819819604326,0.0027424423325245234,0
78,0.053790391983284634,-0.08741286153811811,0
79,0.008952787897768747,-0.03894120011809541,0
80,0.04460674785544286,-0.05420127725408798,0
81,-0.13686196830432942,0.20678218785290145,0
82,-0.018763993243189066,-0.06246017000495511,0
83,-0.003586078632454986,-0.07984851529523161,0
84,0.025130040385306352,0.14283778115459558,0
85,-0.03470046815727183,-0.1376668567153435,0
86,-0.03025146660634952,0.20498305885218535,0
87,0.04482348576415725,-0.13763426942934098,0
88,-0.09131261289251588,-0.014075854254278477,0
89,-0.07827638358751365,0.15149465383252605,0
90,-0.05641540134984528,0.0856637864974752,0
91,-0.013681862757418822,-0.07708994622929152,0
92,0.004702222959194377,0.15739053297295078,0
93,-0.08452841431578129,0.04103011840736273,0
94,-0.06301942969672866,0.07721748204355929,0
95,0.024500926398590007,-0.10264737535033454,0
96,-0.034486923413484756,-0.1367150811815469,0
97,-0.005992978457841636,0.06801413851960361,0
98,0.027610284298283053,0.0492238711431675,0
99,0.017458792699496236,-0.11004369558545339,0
100,-0.06939527505124099,-0.052061918146179886,0
101,-0.06909286036437817,0.21447262449996482,0
102,-0.10722607179501138,0.04332832589557404,0
103,0.046798371082948514,-0.05932894097331951,0
104,0.05991560716317981,-0.15020226265508216,0
105,-0.03240506574899694,0.05798478390039087,0
106,-0.02617892333426836,-0.12238721184145376,0
107,-0.002145349415700335,-0.15416843393459767,0
108,-0.00011473759247121554,-0.11354330500353402,0
109,0.019628195357439548,-0.055796345347954565,0
110,-0.04957022669411821,-0.08323178167535587,0
111,0.010647814241432435,-0.050723636790233256,0
112,-0.04629381692677814,0.006751027799918203,0
113,-0.015051115582888665,-0.01749500922294404,0
114,7.125298251277736e-05,-0.07351214259402404,0
115,0.010178306963170715,-0.01943497005520885,0
116,-0.0545175780303494,-5.091236761294504e-05,0
117,0.021220887252821962,0.03505143728878033,0
118,0.02613970577027869,-0.13160722284453835,0
119,-0.02506233936425318,0.06280234721057662,0
120,-0.05038714057228506,0.014522530382940485,0
121,0.029097759494892867,0.0435247714730945,0
122,0.034740437253898866,-0.10728795502191461,0
123,0.0916340522757089,0.20048425042307277,0
124,0.09229913101470268,0.15851747667059696,0
125,0.21169051530539829,0.21177154415983024,0
126,0.39730447606689,0.4809985887568371,0
127,0.7930422775644773,0.6337383942933112,0
128,1.2052893727059986,1.0863243483553284,0
129,1.711256199895582,1.6559537121804941,0
130,2.344636041856345,2.344720119777678,0
131,3.276675916696626,3.253289984998608,0
132,4.093521270274292,3.9778974684449495,0
133,4.890904099094587,4.807624731660506,0
134,5.649633640616641,5.6817091917848,0
135,6.381449123292858,6.272076211938654,0
136,6.802903191716964,6.906014900092693,0
137,6.941653282529318,7.010908077459342,0
138,6.672656293156889,6.843503724916262,0
139,6.3041976159522415,6.083036012254788,0
140,5.2195664888663265,5.322150669457848,0
141,3.9235580120969784,3.8676234140291004,0
142,2.566481753199754,2.3669170406213853,0
143,1.0937870101181575,1.0188249133098253,0
144,-0.35535355684950065,-0.3186084782811527,0
145,-1.549918584903965,-1.7100859175806797,0
146,-2.4014067123513505,-2.5178428872195933,0
147,-2.9391057345131526,-3.018337109822322,0
148,-2.948775152044268,-2.9035411007366423,0
149,-2.5608098225421396,-2.5993672739279488,0
150,-2.118596193930143,-2.1793081072955025,0
151,-1.2549296912318857,-1.3115177614227522,0
152,-0.3829855231483874,-0.3599108069224077,0
153,0.43646811621677745,0.35140044303964896,0
154,1.0670981525012233,0.9939114715635327,0
155,1.5830912334201686,1.5091687719778561,0
156,1.6354736167980706,1.4513452657518953,0
157,1.5233016177335421,1.5832945231598867,0
158,1.173893675785155,1.1498248041993013,0
159,0.8006462352708179,0.7179992978031295,0
160,0.260716215871219,0.15573949105878948,0
161,-0.19342208450832932,-0.3718678200497487,0
162,-0.5486376421497017,-0.7104959425219322,0
163,-0.8319935945070398,-0.8889684677247336,0
164,-0.7757269333321317,-0.728749690721482,0
165,-0.5556512560906588,-0.8099979527686423,0
166,-0.5746778124139387,-0.49946055562414426,0
167,-0.2540205620707002,-0.34543835756329205,0
168,-0.05112837026132427,-0.17990968304827304,0
169,0.10573260355471535,-0.05081091219127193,0
170,0.3136704601902146,0.39143486675733075,0
171,0.3558469852577481,0.2912079374902552,0
172,0.2872030657863889,0.1761576126042605,0
173,0.2673870144917435,0.27986279237069067,0
174,0.1839254340560257,-0.06985386083906536,0
175,-0.0003478140623575515,0.05354190744569391,0
176,-0.0044699922046105255,0.15287999984059222,0
177,0.001856642086122795,-0.03705375066766977,0
178,-0.12080956739862092,0.03890078367162583,0
179,-0.1540127158523394,-0.18748656439385086,0
180,-0.02650898777304253,-0.21875241427576664,0
181,-0.028422047332829846,-0.0973084355745073,0
182,-0.00777966459254973,-0.09677792100502958,0
183,0.027928163207200457,-0.17479760070390032,0
184,-0.002597743908831336,0.006499297023636136,0
185,0.027608812135287764,0.08381507951215975,0
186,0.04271587508661401,-0.01258887070466938,0
187,-0.032817799470932996,0.08158889497779917,0
188,0.06195691367272639,0.18166884792658605,0
189,-0.04220042868350246,0.04842314735509996,0
190,-0.03910279072996682,0.04196553735107979,0
191,0.030141638217833545,-0.1340244134557047,0
192,0.015150700901727333,-0.1414910144730854,0
193,-0.07379119729911703,0.11271579087487213,0
194,0.03207050596751078,-0.11426013730897602,0
195,-0.056753964255560264,0.00154963579363038,0
196,0.08906066690612224,-0.04728903449667566,0
197,-0.0876372486658897,0.027047288915590717,0
198,0.051536187534287854,-0.08318690178152251,0
199,0.0787147273308916,0.09925592252809959,0
200,-0.04806044127090445,-0.01617527203324508,0
201,0.06392838974658643,-0.010373079882528814,0
202,-0.007326567971103939,-0.009363757118839067,0
203,-0.006165454580224741,0.021247991206044495,0
204,-0.07734099263911833,0.038950850006857704,0
205,-0.08561590687302474,0.16713029165166854,0
206,0.03526910734034871,-0.16624584858661484,0
207,0.03549513394405536,-0.15407126157047957,0
208,0.01227921447433564,0.07011092281645968,0
209,0.04201305471402369,0.010970657464936754,0
210,0.07529692700346567,0.03711137273474528,0
211,-0.0556408336801283,-0.04468620594837343,0
212,0.02002382913134628,-0.07778999072304045,0
213,-0.0052077766855995545,0.14190236741222428,0
214,0.010331401331682607,-0.05671913925580204,0
215,0.020600135928609268,0.044910483980449015,0
216,0.015130131818580918,-0.057347530746809504,0
217,-0.06152659533658096,0.09679599204320145,0
218,0.020471029347980202,0.035367585171925606,0
219,-0.09670964043632581,0.1085540095822465,0
220,0.044214528912089206,0.02873977444159297,0
221,0.03471484055724517,0.020113394240896264,0
222,-0.07516071657612297,-0.06869200071097303,0
223,0.08282346679388336,-0.12482732838489763,0
224,0.07812028963708523,-0.01965458684073361,0
225,0.03110822502068508,0.03285847106613195,0
226,0.049434227633849394,0.17991212790689817,0
227,-0.02351120634745372,-0.26736737030017377,0
228,-0.03899139315845393,0.02022618953511598,0
229,0.04681113236046828,0.11192865073362161,0
230,0.03200635737403113,-0.13106823923847233,0
231,0.018407394053437467,0.008876223228705949,0
232,0.013795587673683753,0.09210910483036489,0
233,0.010514018243408516,-0.03523345703674527,0
234,0.009417879382665965,-0.10141084424717128,0
235,-0.02137287368063544,-0.04329695258572237,0
236,0.06121760252998151,0.0397385123318353,0
237,-0.008303797943388065,0.14879638417519866,0
238,-0.04657005122269637,0.13221395921486281,0
239,0.04350494031997674,-0.10906473030670061,0
240,0.12558863182967245,-0.23794520216005358,0
241,0.01280925444775559,0.010996941828164335,0
242,0.0005984274549309945,0.005861393600552324,0
243,-0.059652414745085786,-0.1776543275698636,0
244,0.024746416638377993,-0.052953960549897955,0
245,-0.001644760979380449,-0.1311521475892428,0
246,-0.01890412981162456,0.07061897505529308,0
247,0.034394259232593316,-0.07018455239996828,0
248,0.04110350898833258,-0.11157492982056899,0
249,0.06685501442323152,0.16005495569786723,0
250,0.20337243854137946,0.29569755396243297,0
251,0.4033394442937614,0.5168786466402667,0
252,0.8131232748207926,0.8718362678490589,0
253,1.0450007631567235,1.0550706949112272,0
254,1.5724173622325002,1.6662019505216004,0
255,2.236347392905394,2.2731469605181838,0
256,3.082554886644245,2.9725273047399488,0
257,4.036212314759137,4.015036579002755,0
258,4.760829751224412,4.7939132340301125,0
259,5.556295401874612,5.719722111504829,0
260,6.316673841318017,6.423365270227488,0
261,6.634262283009098,6.866011528111151,0
262,6.912441747205961,6.915882280402941,0
263,6.776911545236404,6.746677169577311,0
264,6.32344879375328,6.159969269456733,0
265,5.226161980294997,5.323189197958457,0
266,4.1704800527697685,4.178609030754568,0
267,2.727745331452422,2.7885810025463975,0
268,1.2575960126890926,1.2363351319757456,0
269,-0.19153885419048663,-0.16711723450658908,0
270,-1.4283162571606447,-1.3948338955957056,0
271,-2.379323454142819,-2.437404975540537,0
272,-2.9168570871059263,-2.7755365410866326,0
273,-3.011751622422634,-2.9225876488705804,0
274,-2.73359706562383,-2.868037173136477,0
275,-2.1864604905496834,-2.3143670587501086,0
276,-1.4029427541665505,-1.2491630818751749,0
277,-0.49270835221173936,-0.5430121045209179,0
278,0.29745461640662274,0.3179824107686645,0
279,1.142721471660047,0.9330315186639611,0
280,1.414932084310652,1.3682268652812308,0
281,1.4988552806614088,1.5777536583315341,0
282,1.4405377652692715,1.5286010509172008,0
283,1.1567165423880204,1.0637875343648635,0
284,0.6773606102243006,0.6326485120321877,0
285,0.35471115621637056,0.11330556855235524,0
286,-0.10737155683992264,-0.2679047730988219,0
287,-0.5851631338858277,-0.5848119271946586,0
288,-0.6830418702392027,-0.614810616483372,0
289,-0.89343822400172,-0.921184308375353,0
290,-0.6862394062703912,-0.6657509645516064,0
291,-0.5090503863087065,-0.5060714478831869,0
292,-0.34411910279189534,-0.5538721566852265,0
293,-0.06598959484038949,-0.08646041893287562,0
294,0.23191742123760095,0.14024502866837119,0
295,0.14705965263155502,0.274862045070255,0
296,0.39767268387431143,0.4309241434197234,0
297,0.29049454772483285,0.35338936386421704,0
298,0.2227830554843145,0.14508280272207,0
299,0.17154590977083362,0.21356679108582516,0
300,0.18048992150418613,0.09415063421113239,0
301,0.030909392960411213,-0.1722772220440101,0
302,-0.009806158430270565,-0.18438421363811952,0
303,-0.12757301223061476,-0.09632829817303365,0
304,-0.05033211270892368,-0.30614158858354296,0
305,-0.09405610662066714,0.02413639319060397,0
306,-0.031704408041375774,-0.05532220053091924,0
307,-0.04019008953192206,-0.21879369763910028,0
308,0.12237668309389074,0.04929412006198084,0
309,0.08076791336721297,-0.035375887107261375,0
310,0.07096549556489606,-0.04796645092330808,0
311,-0.06737613655723663,-0.16007642699204988,0
312,0.04450607272114954,-0.056682349931670616,0
313,-0.003680951766891309,-0.09776346244413053,0
314,-0.017739861287980996,0.21933207529086074,0
315,0.029033189062349744,-0.19719366509916164,0
316,0.002506802981291779,-0.08805211489098433,0
317,-0.059894229030423234,0.0017746272216853246,0
318,-0.026783196552915743,-0.14668372264438567,0
319,0.07100930951743516,-0.10940172676605857,0
320,-0.0347949135014171,0.09993836772977976,0
321,-0.01282734461563172,-0.0179305152201501,0
322,-0.023200714768497013,0.14190488773649224,0
323,0.038185905188819716,0.00768368371286925,0
324,-0.0900730931165114,0.14103921744740022,0
325,-0.03281406667140281,-0.07119992883035217,0
326,0.05895999904444109,-0.10020324897897677,0
327,-0.01318155745155129,0.09838983599492025,0
328,0.03293278537452929,0.07647899631325177,0
329,0.060279017296209714,-0.04022393878657636,0
330,0.04410072234132553,0.07292355054017133,0
331,-0.0015449400035827557,-0.03121886861195808,0
332,0.03906082201002532,0.11113945999000072,0
333,-0.058323745590836626,0.04634824933220725,0
334,0.06689591746241329,-0.09448836001037272,0
335,-0.04486215901703901,-0.09025399939404798,0
336,0.05706714618776573,-0.09589871320027059,0
337,0.05184436807963137,0.15619989274303459,0
338,-0.06923906453586734,0.11845010044892304,0
339,0.04507435229133597,0.04708072753542948,0
340,-0.027928986826832432,-0.022541922338332628,0
341,-0.08724006509309822,-0.1346003086672435,0
342,-0.04255802713895545,-0.0536626458216303,0
343,-0.003829152236218581,0.0686794433354055,0
344,0.019469011828836407,0.08646897355988989,0
345,0.011543521861288895,-0.02489658565931939,0
346,-0.03662467990390374,0.08288950710392522,0
347,0.0015299661126728268,-0.016596631951873678,0
348,0.005768155373398406,0.09934951453531461,0
349,0.04605545105317505,0.16949738077070883,0
350,-0.05818402563414541,-0.1878015107136316,0
351,-0.0034109306719913948,-0.05884346165231566,0
352,0.03517006964135236,0.09446945314040361,0
353,-0.0427530987442879,0.040694996349903305,0
354,0.022752390385565015,-0.12180923286376105,0
355,0.09976721273411604,-0.024102882639747438,0
356,-0.15655778171682677,0.06687924442074349,0
357,0.02516658508877446,0.018223135736128018,0
358,0.03801115029362549,0.025697041300680745,0
359,0.03097119926064072,-0.016973579382391687,0
360,0.02239183020601158,0.030338992500260745,0
361,-0.02909181136014628,0.015367698228170492,0
362,-0.07210206265182446,0.03268920378630054,0
363,-0.07378597188459077,-0.04222057449188731,0
364,0.03587930366968422,0.11985947594847784,0
365,0.005230018134793576,-0.03190142686105822,0
366,-0.010190972741605468,0.044055426455417275,0
367,-0.0321917906111468,-0.06472148129981312,0
368,0.014070335263556654,-0.11516250171825941,0
369,-0.013190482100798399,0.03223204351602237,0
370,-0.0874262535293796,-0.060918353827303345,0
371,0.021385586148242923,-0.07133330619991579,0
372,0.013496405157840594,-0.0549605284158064,0
373,0.09828935559671133,-0.05979525420122597,0
374,0.09182955224429229,-0.07004606982910319,0
375,0.1984534862454038,0.24059891842639156,0
376,0.4146204266265194,0.46581217449280193,0
377,0.7295373445835241,0.6263605798174241,0
378,0.9071744563122759,1.1566185954521697,0
379,1.5801899762830454,1.4217567834106257,0
380,2.1814030259324215,2.2667373181487065,0
381,2.993587814619603,2.8661072293553067,0
382,3.776375092913996,3.9600003122514997,0
383,4.649045857082417,4.542359027585375,0
384,5.508819187323129,5.495835586375564,0
385,6.16257669458481,6.202328421091642,0
386,6.713280266012774,6.702570736716444,0
387,6.863049663202003,7.071925270493111,0
388,6.842282938306539,6.824880251992634,0
389,6.308040213913592,6.320216486005144,0
390,5.412420452344391,5.353478398106701,0
391,4.2699418976806855,4.331005535177371,0
392,2.9258611332247098,2.9284151928432514,0
393,1.39596562007057,1.463700045934276,0
394,-0.023360900576020523,-0.16003778322242979,0
395,-1.3529657649761218,-1.39982128598201,0
396,-2.2511308628791182,-2.1636469716185625,0
397,-2.842730226878072,-2.8796966627608183,0
398,-3.035537520623289,-3.158888802933207,0
399,-2.7479824170212375,-2.9109984542901866,0
400,-2.3231095120152103,-2.2372266741440123,0
401,-1.4257821160329156,-1.390648239556679,0
402,-0.6827707134917427,-0.8059605447569604,0
403,0.22053776404131387,0.2456393662982792,0
404,1.0575018448523772,0.8267070265670833,0
405,1.4054055895567383,1.485257577993739,0
406,1.5612738932149293,1.6492626854660437,0
407,1.5230674959920525,1.6704632498037462,0
408,1.1919560284678858,1.3211027988747506,0
409,0.8948324843819286,0.6744574048238581,0
410,0.3899675430338291,0.2514460660144672,0
411,-0.09541555053475485,0.16499091551701653,0
412,-0.4765835842285772,-0.45300467251138793,0
413,-0.7047692659035238,-0.6415686603700304,0
414,-0.9056295786578693,-0.784739003696563,0
415,-0.6457283236825585,-0.731185742225545,0
416,-0.5239173093652992,-0.6549993778834616,0
417,-0.3753211277732787,-0.45334060738873216,0
418,-0.12653472081193368,-0.07658396776283474,0
419,0.060058725522492334,0.11438786901023329,0
420,0.18295529306309655,0.1934814434685227,0
421,0.30336344838417145,0.3364022937993742,0
422,0.3124162996332163,0.37442514474073796,0
423,0.3113237899871536,0.2155808043490331,0
424,0.17458773561964244,0.20856788437776513,0
425,0.09835141323298673,0.04407504176991174,0
426,0.045627569106435215,-0.14957299484724546,0
427,-0.12241032732293616,-0.09415156278312166,0
428,-0.1135489402516971,-0.07834516523855883,0
429,-0.1962716351679772,-0.1309458648601686,0
430,-0.02759363523992578,-0.14413135973565028,0
431,-0.08473296187745358,0.08951501295616135,0
432,-0.0017324666489310844,0.14219843894240183,0
433,-0.10054532291464795,0.011060589563697406,0
434,-0.037971165252646384,-0.005781687427114733,0
435,-0.09289435684388367,0.022201764539345494,0
436,-0.01442893362469748,0.0006190682340722065,0
437,-0.029711335273128744,0.02594108963837599,0
438,0.007689011479733193,0.11051088774097345,0
439,0.03235420331918413,-0.19488185574210928,0
440,0.06491663272785998,0.06179097110774682,0
441,0.048427316650253044,-0.10837812568332554,0
442,0.09084649075626533,-0.21470720450131894,0
443,-0.017003366406869155,0.10816622982063095,0
444,-0.08719588595962291,-0.014718915658982814,0
445,0.03803608529234255,0.1403497949920037,0
446,0.007585331457799225,-0.0030317620942719036,0
447,-0.030517700759037973,-0.13771753924935962,0
448,-0.02341859493852793,0.07395165622467549,0
449,0.0524634775693391,0.1515968007412428,0
450,0.02909189429709489,-0.06559604659805132,0
451,0.010868462511399427,0.11045234089296642,0
452,0.02452244273324658,-0.04327803153753813,0
453,0.06556120316856003,0.008132434313849416,0
454,0.02007713456694816,-0.06300157703495966,0
455,-0.017433585245250276,0.023183381854233652,0
456,-0.09930909237363918,0.017905929254714535,0
457,-0.011609559926591862,0.0176641853221081,0
458,0.02488789480607486,-0.2082860978049385,0
459,0.014354821265625836,-0.014669692713057233,0
460,0.023140690290783625,-0.032005752960171045,0
461,-0.0739953430702953,-0.21041930125989627,0
462,-0.025091151634613607,0.01579971890943468,0
463,-0.058721143813237904,0.1291463273685985,0
464,0.017819385738158774,0.055012150260453134,0
465,-0.07121466933378799,-0.07686623198256584,0
466,-0.1060383667058066,-0.13682887595143203,0
467,0.027623476727858934,-0.04220515073438555,0
468,0.0505975089148273,0.1417566140790691,0
469,-0.08349852583321253,0.07171816995955914,0
470,-0.005023394982002743,0.000662902439888376,0
471,-0.04767121497000553,0.03643088105861204,0
472,-0.05158459899280954,-0.004291542712508017,0
473,0.01678787159960673,-0.02450283538717852,0
474,-0.05526582801669983,-0.1027751166301706,0
475,0.07232139583082288,0.13062111564311377,0
476,0.08921092888924786,-0.0743065917184805,0
477,-0.03917415274377551,0.037402078896203506,0
478,0.018682360320136815,-0.011714897925942705,0
479,0.03643101036982443,0.0894932763943987,0
480,0.037286534351381954,0.020118263413621464,0
481,0.04086559423790398,0.07462405464584261,0
482,-0.04437252895180904,-0.07531759666664116,0
483,-0.022959042872722137,-0.21179630677461944,0
484,-0.022104413674202236,0.04068450781200378,0
485,-0.053028877576772514,-0.06404251743927307,0
486,-0.051439280458401127,1.7994384751561846e-05,0
487,-0.040175875706291476,0.02004874805410925,0
488,0.022812115054889694,-0.04775432041101498,0
489,-0.03075663370048179,0.009262886283463233,0
490,-0.04556264099100872,-0.16616145281985303,0
491,-0.03823777804105167,-0.181985254840277,0
492,0.03357092975055384,0.038034953154720295,0
493,-0.005862072254353326,0.02361492993987896,0
494,0.009979308634764048,-0.06361201904325509,0
495,0.03919807425335997,-0.07321918604012168,0
496,0.00044862995138973986,0.05736286024050426,0
497,-0.05952395331758539,-0.0037483138806454347,0
498,-0.0686084849672323,0.06327144818103281,0
499,0.06663893273137922,-0.07098138585982834,0
500,0.22764644287334884,0.18585723996373812,0
501,0.3966633637640796,0.3179847255036585,0
502,0.6158246908353598,0.7285449493629637,0
503,0.9060843446737407,0.9384244050967068,0
504,1.4737991308527993,1.366557343424337,0
505,2.0357358171105866,2.0661825470382285,0
506,2.9062580526674373,3.0208736364509052,0
507,3.677897513977035,3.660392499977758,0
508,4.4915316794828986,4.371920735749752,0
509,5.43537692767734,5.49688909336584,0
510,6.067989253092572,6.046627538559876,0
511,6.645924540674369,6.712859094935572,0
512,7.004441067342351,6.9418183631394434,0
513,6.847652212273192,6.853343093243201,0
514,6.382557118985849,6.473836563100398,0
515,5.700198465415359,5.622992916566529,0
516,4.4967404557980455,4.650823192129009,0
517,3.155662444594703,3.1454327839657434,0
518,1.6976998572472788,1.6620346588428778,0
519,0.18092027192933477,0.12760645393987952,0
520,-1.173324358403539,-1.2252046786598008,0
521,-2.2321507712213986,-2.292050184939922,0
522,-2.789383547696806,-2.8158636485065567,0
523,-3.0447172803731357,-2.986528414404792,0
524,-2.698970324098143,-2.7448338070424296,0
525,-2.326790637250174,-2.3773119455929126,0
526,-1.5512401945608079,-1.5612519629495223,0
527,-0.7941220383783448,-0.7008456506192624,0
528,0.2476575867611179,0.14817280252995063,0
529,0.7788218585170333,0.6312551712740174,0
530,1.3779646086314812,1.2348573105902305,0
531,1.5845982049280949,1.6534736574878648,0
532,1.4057049062771707,1.5855442456473088,0
533,1.2856474830968867,1.3436754790236398,0
534,0.9145476280907797,0.9895637962339183,0
535,0.46968854421049566,0.44176557023921,0
536,-0.04657467683478533,-0.12125190362755138,0
537,-0.5098721144341022,-0.21332478335399638,0
538,-0.6539595528481581,-0.8733619307088927,0
539,-0.6818112516620245,-0.9771696242599411,0
540,-0.6264048714132417,-0.7497201599286247,0
541,-0.5816956149357646,-0.46814376072399105,0
542,-0.32752027878212164,-0.43890075994694666,0
543,-0.13281710707507793,-0.20198087070243648,0
544,0.057596339197041414,0.08728698016882191,0
545,0.3367697680830615,0.11088942678759295,0
546,0.31033349901225993,0.4571866733959701,0
547,0.3265803802402264,0.26105044079980444,0
548,0.24811331907898732,0.33977318887888586,0
549,0.15790514548716428,0.274980638048825,0
550,0.13042559006719395,0.006186430585626013,0
551,0.04733848604738945,0.1522485992535041,0
552,-0.18571799630571234,0.020093660025306097,0
553,-0.15112713395935684,-0.10439343675985194,0
554,-0.1479596342631073,-0.21582951448295362,0
555,-0.08135200942008974,0.1147636591468562,0
556,-0.09755627468795008,-0.13233872498535085,0
557,-0.11341871563704772,-0.16111841824202586,0
558,0.02126490384295759,0.017929462853220068,0
559,0.028318365899615533,0.019470547490630936,0
560,0.0005207161056747199,0.06069458405925478,0
561,0.10379332757991827,0.06566967493784229,0
562,-0.01614800972018747,0.09633082129747672,0
563,0.006339564684870867,0.042371159005625894,0
564,0.07064321350600433,0.23298925801825546,0
565,0.006605334506308465,0.0011966076919626692,0
566,0.07261693441137282,-0.03119669746332552,0
567,0.008310036419014372,0.04182901430147913,0
568,-0.00046050170445038376,-0.04452566210403598,0
569,-0.012514866169898303,0.11726986808594926,0
570,-0.0075458882715802,0.04241372392534323,0
571,-0.0799974887106281,-0.012530721086847042,0
572,0.039775620369068954,0.04964049773394876,0
573,0.013070497021438664,0.05830576727307161,0
574,-0.031583592450433906,-0.10955719338312861,0
575,-0.0644652518961448,-0.06933683682292296,0
576,-0.004532454882257316,0.11995607295683333,0
577,-0.04636827615172728,-0.134942148911926,0
578,-0.055104650139649776,-0.03098500694060877,0
579,0.06703604598475134,-0.09352191546444963,0
580,0.01914802982749279,-0.2613616687444394,0
581,0.08800508318418872,0.10870741100936838,0
582,-0.07655841078413586,0.07066986673224032,0
583,-0.02472998229735063,-0.11957409002861376,0
584,-0.06401262080229075,-0.02574908154469078,0
585,-0.03478060716354199,0.12143526296357515,0
586,0.037047113918796414,-0.1652152292592399,0
587,-0.05268072333395556,-0.135312288037182,0
588,0.022172863930552518,-0.06010878271398282,0
589,-0.02630816916796833,0.07264643406441042,0
590,0.040543465761267904,0.029194607968693605,0
591,0.04165756713275677,0.006134653923584,0
592,0.07348008559716568,0.05765854138541504,0
593,-0.060273502800265916,-0.11677030175928967,0
594,0.04554506249823308,0.08401757111199958,0
595,-0.06726108721087358,-0.007568218982252509,0
596,0.06975825442756912,0.04798257456128316,0
597,-0.10931073516940791,0.002750060310285923,0
598,-0.054901169219481266,0.04985179105365956,0
599,-0.058362635269788625,-0.16742851731170397,0
600,-0.13819379456170203,-0.181018567932769,0
601,-0.017784483096645487,0.042080151225922076,0
602,-0.013132412434039625,-0.013803612089328832,0
603,-0.00933602046727275,0.028626428432816462,0
604,-0.05250401814854338,0.156562189796083,0
605,0.09799557329337419,0.029900790388194036,0
606,-0.02042658094329728,0.013506098474315949,0
607,0.12129598009504447,0.06867428008248132,0
608,-0.057673288244497696,0.0033027247806929816,0
609,0.015152912256934298,-0.0601041075102953,0
610,-0.08761535670927091,0.05033162763472903,0
611,0.018453331651274437,-0.047110566675662026,0
612,-0.01092931137351553,0.16881313855746044,0
613,-0.008455516181235634,-0.012203877240638436,0
614,-0.039613367991271624,0.05738304029993368,0
615,-0.003511196378704281,-0.1809863052727153,0
616,-0.058636737761218534,0.033500381396645046,0
617,0.02031539572981277,-0.10563002573567823,0
618,0.026436474605244734,-0.06129944085830823,0
619,-0.08899931008164644,0.21482496744402532,0
620,0.0019707425602256664,-0.07933620260518306,0
621,0.01987302377586237,0.03830586028408875,0
622,0.043488864578455126,-0.03505922628998163,0
623,0.0649155788385478,-0.12872332872471245,0
624,0.11307724824575871,0.0779401890964869,0
625,0.16767257134783536,0.2368676910298158,0
626,0.33170421294777663,0.3371937931893347,0
627,0.5687452977429709,0.4186331885546487,0
628,0.876494090249099,0.9846552502582164,0
629,1.3468629355378228,1.2499638307644851,0
630,2.0444683625421294,1.8963965021433324,0
631,2.750135082379714,2.5415705304164953,0
632,3.5541828849282173,3.714943298789928,0
633,4.473873165605747,4.361653679799428,0
634,5.294051836407134,5.332276846982665,0
635,6.077875563337885,6.122547592284669,0
636,6.5822216542157586,6.769912038967349,0
637,6.93929702853267,6.854017571113449,0
638,7.000933174793954,7.05340707747959,0
639,6.467295686198859,6.505165658857576,0
640,5.651148188285581,5.531343505614913,0
641,4.540396450733004,4.594555897579037,0
642,3.3469797792181337,3.2924405289020626,0
643,1.8066304047941695,1.7078781749371608,0
644,0.35187340159284464,0.3955186897708677,0
645,-1.0023456344506068,-0.9397507992198373,0
646,-2.1811911133550024,-2.089298584972897,0
647,-2.62847247239223,-2.843519597941672,0
648,-3.055771971382068,-2.952748854684941,0
649,-2.89204908592717,-2.7258763532513886,0
650,-2.486232506840837,-2.3104077314510407,0
651,-1.7961227056850446,-1.7044994219480056,0
652,-0.8548930811485665,-0.9005944989416956,0
653,-0.00028988816161102,-0.04337632936309526,0
654,0.7750459602188451,0.6588286069604066,0
655,1.319856559055015,1.25734329089043,0
656,1.6054292690882834,1.6603029892900394,0
657,1.6324653418743524,1.516238083032214,0
658,1.3804444826932656,1.2890252311409205,0
659,0.9295703741402939,0.9486848967269428,0
660,0.5440962944229296,0.49311525280401497,0
661,0.06882465086466032,0.00611893915605401,0
662,-0.4320621201261824,-0.33750457516168125,0
663,-0.6586136453500668,-0.7729878614120714,0
664,-0.7638142199498993,-0.7212401784762762,0
665,-0.8066130950524893,-0.5294694872717961,0
666,-0.6056183639968212,-0.7774293322837702,0
667,-0.3885725373703176,-0.537264999534657,0
668,-0.14433571974496257,-0.2799831796033496,0
669,-0.005287507860155631,0.10054650998934231,0
670,0.18331197640092417,0.3456611728947755,0
671,0.27670235251617414,0.3185316283921525,0
672,0.39038020745977203,0.27316523665185927,0
673,0.22757809031339254,0.33159434338887867,0
674,0.24724686567362048,0.17408021429807669,0
675,0.10098866846720618,0.03159660665458085,0
676,-0.02302370203316692,-0.045283437882900755,0
677,-0.0546109848168072,-0.10783084865913958,0
678,-0.05584793095466981,-0.27942100346868787,0
679,-0.04881788284675109,-0.07415935960518133,0
680,-0.12527013793777872,-0.1846984099802531,0
681,-0.03140735270074705,-0.002322395296504076,0
682,-0.14029899503088783,0.008800048097667691,0
683,0.04164668894782607,-0.02056181569564677,0
684,0.06436012256680596,-0.015157603189718896,0
685,0.04563724278423346,0.0031250572549893427,0
686,0.03630064680542064,0.06044231947489684,0
687,-0.05690608071008859,0.16115241904888683,0
688,0.0038916479389435807,-0.13111996099426454,0
689,-0.060510497326617604,-0.09482202212533977,0
690,0.04903438835595681,-0.054023464690470806,0
691,-0.04847128963052912,0.04582816257315227,0
692,0.019558937110247736,-0.08108289025293634,0
693,-0.009592760690819793,-0.0319558016691601,0
694,-0.01949823828647597,-0.032773657206547166,0
695,-0.004987848749518423,-0.05653100085652188,0
696,0.09624040846029637,0.10980189466931853,0
697,-0.0005680747461722429,0.18144079439125335,0
698,0.04434103768501432,-0.0901062247027349,0
699,0.017422583546517694,0.1365414726478322,0
700,0.0015521240201626326,-0.1308834512920769,0
701,-0.04033568371069819,-0.052910459960476615,0
702,-0.017679710630502027,-0.02029737708294002,0
703,0.020506909970152472,0.04325518468368285,0
704,0.010818440165077988,0.023305842623942565,0
705,-0.0733317597484394,-0.003914660215177582,0
706,-0.0002741726740957026,-0.062475277255195104,0
707,0.003332147125165017,-0.14679077070105243,0
708,-0.005606699677874545,0.03204061913466863,0
709,0.041378339327938,-0.07375020029611365,0
710,-0.024773003455036805,-0.01022889532638109,0
711,-0.04239291454914789,0.11425158420075637,0
712,0.008837448049443284,0.22391290727919222,0
713,-0.025865020767794827,-0.08796129262309293,0
714,0.019724232987219453,0.09990610821899208,0
715,0.004728714611015218,-0.02015485938817022,0
716,-0.03437786628796757,-0.08535559031538738,0
717,-0.052640928010087226,-0.1130877244473906,0
718,-0.01195021861424014,0.07338768720878062,0
719,-0.021404632210659625,-0.038903119536901704,0
720,0.032196754643605274,0.0906861586940665,0
721,-0.007642171623296884,-0.06555652132020541,0
722,-0.028758556704784038,-0.07107489539564586,0
723,-0.044820920803703056,-0.14561374006427893,0
724,0.07891663401382489,-0.01565720315104131,0
725,0.08843455257965162,-0.11481659987320479,0
726,0.022238862840754634,0.03706909851117012,0
727,-0.020016388999759,0.04502193205077441,0
728,0.0707891170898967,0.08227964715349377,0
729,-0.07507399081957676,0.07436580439137953,0
730,0.011019520719113617,0.05039788495750166,0
731,-0.04937842695068079,-0.015090863807896324,0
732,-0.028383565035779962,-0.04322653936212593,0
733,0.03510448310188255,-0.06533698883870724,0
734,0.03396143783016574,-0.033986767740290004,0
735,0.007973268562414319,0.03395310818885511,0
736,0.02580461471934797,0.03155080626121115,0
737,0.024279173033213523,-0.11925478129932392,0
738,0.014206114413717498,-0.02942925663303821,0
739,-0.041795600722292985,0.008743051899232768,0
740,0.025952505586228115,-0.0023528852658032963,0
741,-0.11316718430134565,0.05911525084919727,0
742,-0.009975663964016182,-0.11216749765597131,0
743,0.04195700214460588,-0.12485107432575307,0
744,-0.010453768858222223,-0.08833866382855013,0
745,0.017507452320197327,-0.22870503364958178,0
746,0.05798911837482944,0.08056221912040562,0
747,-0.022163337619445767,0.017465373452470425,0
748,0.048971035242495145,0.00848180608302173,0
749,0.08348012552780348,-0.04322884004906635,0
750,0.12907383382614868,0.27167576525239273,0
751,0.37755511026887917,0.3160759191520123,0
752,0.527699797523124,0.39104789955957053,0
753,0.8335475279777932,0.8836711519536556,0
754,1.2856585832975946,1.2944160369167388,0
755,1.9090975651612887,1.9921956639711782,0
756,2.613390399267612,2.6822825112342623,0
757,3.4398562921491385,3.4603837064954406,0
758,4.288770793020387,4.3700298036076575,0
759,5.085951261501455,5.03411912300908,0
760,5.900411701435466,5.8417711430129415,0
761,6.502614214763007,6.613894286022118,0
762,6.7931925014604335,6.849865139863936,0
763,6.968109158042267,6.867644470359934,0
764,6.605030857648756,6.48994196903402,0
765,5.8421908345224365,5.878027539371589,0
766,4.763520143603452,4.702402818016235,0
767,3.4756686674778963,3.521302638155907,0
768,2.07131299296303,2.025181785418196,0
769,0.4972712649062594,0.6164545592930728,0
770,-0.836494776175192,-0.5600851368468414,0
771,-1.9297885286825285,-1.9280547492480915,0
772,-2.661502908245914,-2.6849259090593804,0
773,-3.058300510107916,-2.975317059348757,0
774,-2.9065059685249652,-2.9189473682584053,0
775,-2.492092984352144,-2.333944589369109,0
776,-1.8906367295219384,-1.8273450756081204,0
777,-1.1257802620554325,-0.9051220416055832,0
778,-0.1429637555417764,0.0027795174247760984,0
779,0.6901223502055981,0.6660423820726945,0
780,1.2167295098022743,1.1515451953916116,0
781,1.4906558737360085,1.7477855710691053,0
782,1.5611763517850936,1.648246534824704,0
783,1.3496538420615878,1.432644412998925,0
784,0.9605224414350193,0.952299586204738,0
785,0.5904525693640253,0.5133756743909248,0
786,0.09673512872604755,-0.0011448926111121416,0
787,-0.3317517356822088,-0.18474309925400514,0
788,-0.6269917659424811,-0.705042354303714,0
789,-0.7729822418498828,-0.7370963448034465,0
790,-0.7914883201238022,-0.7911779569733448,0
791,-0.6455008377834748,-0.5869236666803598,0
792,-0.3517028835558713,-0.4017435389520609,0
793,-0.16660364698560157,-0.13569100081139232,0
794,-0.026995935677535,-0.14529221572741557,0
795,0.14329387353407563,0.27782114419793896,0
796,0.2741970053290668,0.29661241987563514,0
797,0.3241859378459412,0.3243581281413305,0
798,0.26908192098083733,0.3146778602220438,0
799,0.12543978060522137,-0.0007077186468404384,0
800,0.09152461808760581,0.14440228230693103,0
801,0.057167677335077174,-0.15968391846217767,0
802,0.04284848344041598,-0.004461628002519688,0
803,-0.04024061821540001,-0.19724839681985512,0
804,-0.0936604717419455,-0.057372223355137184,0
805,-0.19373437669544197,-0.12613243641207558,0
806,-0.09130355132252749,-0.3294386635885005,0
807,-0.1017963863429151,-0.2134463686010055,0
808,0.0715121767733578,0.04867875558666511,0
809,-0.00455863998131998,-0.03054918384223256,0
810,-0.08958588075464527,-0.06608232854928806,0
811,0.05061509426722742,0.0672974842709847,0
812,-0.06669422175353032,0.11324018533388878,0
813,0.09327684889061914,-0.004750223371120139,0
814,0.07467872139815264,0.12771565263558915,0
815,-0.030707854035794103,-0.05596716564242472,0
816,-0.004378873506712212,0.19745891883645728,0
817,0.09861122459131672,0.024663405421586113,0
818,-0.04745166022859504,-0.09218421454855744,0
819,0.007665425643046916,0.07183876139436499,0
820,0.05146165569926659,-0.04132963710808759,0
821,0.0019869364465727557,0.11615105514043761,0
822,0.017907582198262332,-0.13555636769414303,0
823,0.007510830981786288,-0.006239670253436311,0
824,-0.09236344878000884,-0.007384130245042203,0
825,-0.0399444341130677,0.023334355204093795,0
826,-0.03733796499003476,-0.06263625285207025,0
827,-0.024217773317079465,0.0230225258835828,0
828,-0.037195927138664805,-0.016024162693948754,0
829,-0.016191441378534576,0.12133479251087761,0
830,0.0240900565429304,-0.12037369702501763,0
831,-0.01650135688920408,-0.08771375944395413,0
832,-0.022043921513257275,0.019552550755088507,0
833,0.02996432595927985,-0.020722369041493386,0
834,0.12490024920563729,-0.11864272291786787,0
835,0.0373238856185091,0.13148277790602472,0
836,-0.05574859866037233,-0.24674755285377897,0
837,-0.06045799426169,0.037190027456775104,0
838,0.022381604534151077,0.10572525315959698,0
839,0.05863803274642913,-0.10601832006510253,0
840,0.01766711909074503,0.024680080679798194,0
841,0.048734324470772084,0.11630539882778312,0
842,-0.003053409596680516,0.06331935395428513,0
843,0.010819408439181985,0.17829852196804036,0
844,0.03130646798804787,-0.04813198724252589,0
845,-0.052524437252405694,0.07238297246260525,0
846,-0.045304582516462584,-0.019949261308869877,0
847,-0.06977961545785821,0.10958036981640762,0
848,-0.011308439947691717,0.10543634341983626,0
849,0.016596415773712157,0.031099538411579426,0
850,0.05574762389615727,0.0691018326236156,0
851,0.02449042538821558,0.05715624704412629,0
852,-0.1303119185875541,-0.06859450220681924,0
853,0.08061289722919818,-0.07472237387555657,0
854,0.02689457761522706,0.16240053259284176,0
855,0.040497181083566716,0.11676377653059342,0
856,-0.07681373481858322,0.04395282900260167,0
857,-0.09205038361047913,-0.0611267566283316,0
858,0.0002039177746603713,-0.18017276392657572,0
859,-0.1262777825684534,-0.061657380167826834,0
860,0.0007519102492301605,-0.017121968992373053,0
861,0.01091271967312274,-0.11058258555691351,0
862,0.06675862506084324,0.11239239548275716,0
863,0.02747973101697537,-0.12646768268649733,0
864,0.009447305243870385,-0.004835702405238989,0
865,0.04913293805007705,-0.01990459291510284,0
866,-0.026275008953706797,0.11590734671085208,0
867,0.02940263041585312,-0.03976043437727584,0
868,-0.05795979876481157,0.04041336282051288,0
869,-0.04772274848736913,-0.1589516989929515,0
870,0.02721933454963451,-0.2537991107035701,0
871,0.07479908039735596,0.039204195973650866,0
872,-0.14055595618569292,0.09523965105573975,0
873,-0.0058015526275532695,0.05380002738496438,0
874,0.17050178389817766,-0.043302731987993115,0
875,0.135136461184153,0.046855876725702406,0
876,0.29733582348344184,0.15453011422323779,0
877,0.4395503102579356,0.43825765722922727,0
878,0.8555275528706091,0.7935308072527653,0
879,1.3314200933323024,1.2237230131659946,0
880,1.8358662142322664,1.9151299200642058,0
881,2.5148309429104785,2.579233117913178,0
882,3.354858456805292,3.353009931745681,0
883,4.238388884828661,4.062695747226639,0
884,4.974572122883645,4.906222208072453,0
885,5.804167693465878,5.873966774070587,0
886,6.475205096683433,6.578012912792169,0
887,6.798366703612305,6.928203484892957,0
888,6.978542086240272,6.959619664946453,0
889,6.690726987770337,6.547335412735853,0
890,6.010748023496124,5.918822232575362,0
891,4.9722491578679024,4.815216637928261,0
892,3.62539098501049,3.434679051709412,0
893,2.2319106564668276,2.449915931873541,0
894,0.7255845231771558,0.8213513105572934,0
895,-0.5960893141317455,-0.7679877996039456,0
896,-1.8133626789553836,-1.677824599796458,0
897,-2.631256550964767,-2.581941391375809,0
898,-2.9822597237399173,-2.9056898360743837,0
899,-2.8893927299990882,-3.0094437125852456,0
900,-2.526965863256418,-2.7445054906140673,0
901,-1.9698876780100474,-1.9550993904051368,0
902,-1.1293590081810176,-1.1637567031718314,0
903,-0.1997281297799674,-0.20095322873876717,0
904,0.5883249728617316,0.5756847511325428,0
905,1.1684252256512706,1.1019079561001304,0
906,1.5847513694526432,1.731069422120065,0
907,1.6154369810451459,1.6029917273590781,0
908,1.497072312600452,1.4429389907392929,0
909,1.0451268138934613,1.1011505853919181,0
910,0.5714547217360055,0.5913365802131266,0
911,0.14482217821564736,0.17948419805302074,0
912,-0.2377823819045215,-0.09390431347631453,0
913,-0.569693443203015,-0.6362861403470479,0
914,-0.8056588022027931,-0.790218934815696,0
915,-0.7586305143863724,-0.776395533844212,0
916,-0.7291467789653038,-0.7360687391063162,0
917,-0.5043557696067072,-0.48454839934430327,0
918,-0.27516357227184085,-0.3080323606102192,0
919,-0.048807570800074376,-0.011670259545694048,0
920,0.1908457712245081,0.24345250041507446,0
921,0.3269109884250517,0.3447562771021531,0
922,0.2593042123304916,0.226222490731116,0
923,0.35179452427140256,0.4275483493034137,0
924,0.2062237322549635,0.39719958267803235,0
925,0.07687451670989362,0.07079188830594801,0
926,0.0029930787875134084,-0.011455183511465787,0
927,0.051972301975876,-0.16674916388662114,0
928,-0.15221028076928894,0.00270660295991218,0
929,-0.12143560896522199,-0.10734204210352889,0
930,-0.11130604908838508,-0.18870091868372607,0
931,-0.08763011238663715,-0.1497021037649561,0
932,-0.06921559938686225,-0.11603921445329243,0
933,0.023381202593803236,-0.1893491707540454,0
934,0.12210444167863158,0.07973122279145818,0
935,0.05120084364779234,0.09598767176835135,0
936,0.0016558846485276307,-0.018871346466681566,0
937,0.03674495165137638,-0.16240840645794538,0
938,0.06700129675450128,-0.10087441966298377,0
939,-0.01036342913764045,-0.039463746581713637,0
940,-0.04778349251304338,-0.014635091905317133,0
941,0.052511347168680125,0.037976910784381236,0
942,0.04215779995444531,-0.10205902690916338,0
943,-0.010727554598033573,0.03460211299608059,0
944,0.0068847348662492,-0.026777174838317857,0
945,0.00889372961787556,0.1392905305336301,0
946,-0.03827419241276856,-0.029009474349022082,0
947,0.019585279017064073,0.13886694939309543,0
948,0.0021415294226699993,0.17163631811287478,0
949,-0.03069046863892757,0.07047386892105416,0
950,0.014811443302900174,0.024311916634389558,0
951,-0.0363332162025963,-0.1328349602472446,0
952,0.08764070648373239,-0.023196433399930654,0
953,0.029157064512361948,-0.16554775056477236,0
954,0.11366065821548205,-0.14368581173435443,0
955,-0.03776289213628409,0.1248964355083736,0
956,0.0485339193181547,0.12057519430519253,0
957,0.09437844265571664,-0.18621888521747776,0
958,0.0225772782501879,0.11243901784427345,0
959,-0.015400159643861553,0.005644734825823583,0
960,-0.031089594211704506,-0.02752422671000728,0
961,0.014929891516396256,-0.021883138048762754,0
962,-0.01996684173813737,-0.013516917469534026,0
963,-0.07870807494036408,-0.0826195181614586,0
964,-0.0037178364302054346,-0.0403472189695415,0
965,0.035778086776584554,0.07101770413494066,0
966,0.023723932318138314,-0.15445387841809607,0
967,-0.011691086618111716,-0.0883825031026368,0
968,-0.022775265608367245,-0.12313243458752002,0
969,-0.004905732500335943,-0.16897046265896926,0
970,0.09051144167440142,0.008565828757157978,0
971,0.0444056161890511,-0.1734158540503866,0
972,-0.056948071100752055,0.026081089911447537,0
973,0.03477364989496098,-0.08867186440357279,0
974,-0.00029808043343753987,0.04770198420995155,0
975,-0.06891320201236799,-0.15816080113826828,0
976,0.01255221840759758,0.13209555338410067,0
977,0.04640172072371662,0.1882323363739033,0
978,-0.06014697250655533,-0.10067507212516726,0
979,-0.009325504119636053,0.10585243546567985,0
980,-0.019790188018710273,0.03773066665179166,0
981,-0.019899360736694,-0.010687182595329175,0
982,0.008793776620746664,0.021659648686288113,0
983,0.02324104598051389,-0.0151682262623027,0
984,0.0019023245237943201,0.13089722311826213,0
985,-0.04468205109480161,-0.022871249069356715,0
986,-0.08689697020370268,-0.13085155460555242,0
987,-0.017335097828278138,-0.011232493417244709,0
988,-0.003303360666747449,0.008361674221460464,0
989,-0.06416223164452549,0.015999261616780672,0
990,0.02751219713819524,0.1364358955977764,0
991,0.0725674688104892,0.2853896589488208,0
992,-0.05783544916372305,0.0402424300149612,0
993,0.06763225834282863,0.07496258057420438,0
994,0.015696534395193293,-0.1623405009383294,0
995,-0.08870448715487447,-0.010357727928175475,0
996,0.05003876590905049,0.14221670115105997,0
997,-0.035086470372256984,-0.034220938128695956,0
998,0.06266781923143759,0.06155258073738056,0
999,-0.020618336419855138,0.05292729918495122,0
1000,0.12915111503992804,0.17744602451297942,0
1001,0.26492409030498076,0.3322791017645548,0
1002,0.4393033636784983,0.44315229609741225,0
1003,0.7214519952952607,0.6816639975289125,0
1004,1.269403051862687,1.1807746569923896,0
1005,1.6361509042204712,1.8170415675462406,0
1006,2.533221163857846,2.4860383616018686,0
1007,3.2261261221344637,3.289641640994006,0
1008,4.0834383271190875,4.070708073853805,0
1009,4.97480604808141,4.913424665620707,0
1010,5.733184539260329,5.853594876392381,0
1011,6.461446967882259,6.331201002833786,0
1012,6.82352226326096,6.824330526776188,0
1013,6.97729541408051,6.991567802026999,0
1014,6.716742806600704,6.531951508490327,0
1015,6.107249488470857,6.014658339576949,0
1016,5.084626149757787,4.961894337638213,0
1017,3.758612834947084,3.833779413807471,0
1018,2.4338509375653574,2.4521848615859785,0
1019,1.032274807310662,1.004401182614975,0
1020,-0.46268471831124275,-0.29269186696101746,0
1021,-1.7645285264182915,-1.6221931495094795,0
1022,-2.5050143069895374,-2.407080334393041,0
1023,-2.873596037435766,-2.913875606076019,0
1024,-3.01546716184144,-3.007980539517839,0
1025,-2.5504185802831953,-2.506256600748301,0
1026,-2.070940265230989,-2.079386309536074,0
1027,-1.1619153582906006,-1.1381497002311345,0
1028,-0.28225310872090387,-0.3462029035949483,0
1029,0.49541662212342064,0.6329842248031743,0
1030,1.0801629041110985,1.2498629483651835,0
1031,1.4670811592930764,1.5006716962821303,0
1032,1.6072624713748485,1.674144821202268,0
1033,1.4413313207962886,1.3459111519629803,0
1034,1.0185521683724772,1.1159473955029557,0
1035,0.710902100939727,0.7799131874002921,0
1036,0.14735442433154766,0.17040115402972672,0
1037,-0.31877460103932626,-0.1333438003953331,0
1038,-0.4865480530285303,-0.646944229461651,0
1039,-0.745894534799493,-0.7509190372499487,0
1040,-0.7650047547412158,-0.8976170775661358,0
1041,-0.7677620098150173,-0.6018734346053429,0
1042,-0.4459262446231372,-0.603498287670626,0
1043,-0.17771270800181094,-0.24968379045349928,0
1044,0.01855477831983461,-0.06471452820600351,0
1045,0.1592544005996378,0.26554861698120186,0
1046,0.27020182276923893,0.24292041394816652,0
1047,0.3526668712247417,0.4755615475636502,0
1048,0.28618932276080145,0.4307306730456235,0
1049,0.23400840137625203,0.2633265842499542,0
1050,0.1664535238810057,0.20886014498741168,0
1051,0.07310940182465911,0.057466949545598084,0
1052,0.02605056087920172,0.09586526713382854,0
1053,-0.09080500405163153,-0.033344516239966523,0
1054,-0.24114756241341323,-0.2275680588747453,0
1055,-0.14608570346321786,-0.01397035362248257,0
1056,-0.03940360545621073,0.02345709814470874,0
1057,-0.1059437322999622,-0.0680812046529646,0
1058,-0.08519752552452105,-0.09278899214660022,0
1059,-0.012710263075220489,0.02477499911945932,0
1060,-0.033295693357699954,-0.003068345666938758,0
1061,0.011135021270628053,0.24179013859215287,0
1062,0.03118830656280543,0.04582282543773027,0
1063,-0.022344385773318636,-0.02537974435712464,0
1064,0.04431673024031727,-0.10169620965248732,0
1065,-0.012440514364562076,-0.08316772541363558,0
1066,0.07261260769935474,-0.08436219461614437,0
1067,-0.01723658295161771,-0.28723846313988216,0
1068,0.017992589836764147,-0.04084003290567448,0
1069,0.0068751992949175385,-0.03894967155328592,0
1070,-0.10531710826531294,-0.020503523769505656,0
1071,0.015055484869262574,0.012846343538776986,0
1072,-0.03855106287880743,-0.0417788516828338,0
1073,0.07608242301364786,0.032584730373857826,0
1074,-0.0836555928458816,0.05924608263428657,0
1075,0.0014916353578396772,0.05763387900873275,0
1076,0.029914670953197765,-0.002484026560403489,0
1077,0.13253180653379726,0.0981958060593124,0
1078,-0.0024198196752958584,-0.25149745323252654,0
1079,0.08983185682079237,0.06304015777998093,0
1080,0.04006957533991784,-0.06743342802303405,0
1081,-0.03850087729725102,-0.215206863246655,0
1082,0.060985575179388844,0.11289368091309168,0
1083,0.006109191008218255,0.1046946791792935,0
1084,-0.039258189352570604,0.0247628155574619,0
1085,0.014499958195176918,-0.059022916761337425,0
1086,-0.009413514338813357,0.1547325309443137,0
1087,0.0465214978285483,0.16026383572101313,0
1088,-0.05155138838310551,-0.12035247750636509,0
1089,-0.009596914884476301,-0.011285504386111266,0
1090,0.00875471473747596,-0.06967624559260979,0
1091,0.03757091223648567,-0.1114162332577023,0
1092,0.07000438546409586,0.06458136270350782,0
1093,0.03235218566073011,0.11467115421241901,0
1094,0.09176146869122938,0.09887560660625598,0
1095,0.061607928221020083,-0.0748417228148901,0
1096,0.06304589861856362,-0.14810668584365627,0
1097,-0.006577762557199044,0.05206769024168847,0
1098,0.03882907749704302,0.022434574868493623,0
1099,0.017584208196103183,-0.05695841611111055,0
1100,-0.04265981741095205,0.0872334294975255,0
1101,-0.0008759311414991189,0.0115050329417256,0
1102,0.026500572783280225,-0.044128502186530916,0
1103,0.017329362762327213,-0.18957941542574425,0
1104,0.08585458025065375,-0.09122115260306617,0
1105,0.05998558973831654,0.15047019727836566,0
1106,0.03663420169016573,0.055458446163284734,0
1107,0.03890563630761889,0.17775260906243331,0
1108,-0.063599642728919,0.1044591896171086,0
1109,0.05892149972908053,-0.20244683257398316,0
1110,-0.03918207750516342,-0.02673298552267481,0
1111,0.009304734044023627,-0.08814825790580169,0
1112,-0.007735244893911682,-0.021521636494777025,0
1113,0.05780850336546231,-0.11498833674831262,0
1114,-0.027917831236681845,-0.08775096359938489,0
1115,0.019743774876152902,-0.03251318053033345,0
1116,0.08279358169104074,-0.0017032111135167694,0
1117,0.00974270472093397,0.041444589151171475,0
1118,-0.05715098284735831,-0.0503340962656855,0
1119,0.018843388926642717,0.19858681970529235,0
1120,0.009851677705501629,-0.18045751903559618,0
1121,-0.017168046596839327,0.14993887067140302,0
1122,0.01880613172367659,0.07984243666306666,0
1123,0.03154094897339274,-0.033697551359775854,0
1124,0.020253279262980466,0.12687735804353134,0
1125,0.09956844553795999,0.23194135094943222,0
1126,0.19404634739331406,0.21821762050468943,0
1127,0.4162519918548396,0.530782524244611,0
1128,0.7654515843981252,0.714178703660456,0
1129,1.0718654736739341,0.9914635601121297,0
1130,1.7143957180946057,1.7100435524672808,0
1131,2.3543694858324624,2.318636564091544,0
1132,3.186300971028566,3.059473101357908,0
1133,3.9392358852809797,3.9495165439101125,0
1134,4.916610947919719,4.859999423849946,0
1135,5.593211737621723,5.4911865303201886,0
1136,6.361294459491535,6.40731310357059,0
1137,6.738806077808988,6.75488078773367,0
1138,6.989366124161501,6.916279114136474,0
1139,6.720561568514338,6.789768245592163,0
1140,6.20055781375113,6.052481399927861,0
1141,5.306647151178429,5.15818935134485,0
1142,3.9638612501657504,4.18297684272836,0
1143,2.633512286429278,2.6448448887187013,0
1144,1.1342549194405278,1.076760364095393,0
1145,-0.2887466755520906,-0.20121433555068022,0
1146,-1.5210615528594649,-1.4293127212465135,0
1147,-2.5266089580388127,-2.4559655750275797,0
1148,-2.977378237383815,-2.8882618417428807,0
1149,-2.9293934590306767,-2.9766690130678635,0
1150,-2.7678772428169256,-2.714599233165995,0
1151,-2.11244783102092,-1.9180952964503424,0
1152,-1.3361131192226632,-1.3694336440834032,0
1153,-0.38858568454460696,-0.45578517147375414,0
1154,0.40664805793396047,0.23352578026933968,0
1155,1.125755732586267,1.1446044916866123,0
1156,1.4707198011213771,1.6031466154169307,0
1157,1.512651147767213,1.5158587220291682,0
1158,1.4587850380109677,1.325796610764771,0
1159,1.1399221291576827,1.1808371243051392,0
1160,0.7367022037012485,0.5330934776713416,0
1161,0.2870737178196319,0.1517682153938541,0
1162,-0.13835916835773776,-0.16443891704338706,0
1163,-0.5575535472042666,-0.605886228653634,0
1164,-0.7411680202147912,-0.6954264104888466,0
1165,-0.8934019483850341,-0.7312131806453526,0
1166,-0.7027380383837787,-0.6948219172338824,0
1167,-0.543544349768666,-0.4262623277253852,0
1168,-0.2211039119384165,-0.3678246391902135,0
1169,-0.10851284886184165,-0.01452403534993045,0
1170,0.166244354021315,0.16741261618334646,0
1171,0.2661140839695316,0.092957432344981,0
1172,0.353606380707637,0.6561149532022132,0
1173,0.3125631720163155,0.27467718937564195,0
1174,0.20808917147757594,0.3212939586360333,0
1175,0.15843302128749526,0.07424482657134282,0
1176,0.13434545558501845,0.15839383932137924,0
1177,0.018388040311438272,0.001080997085670169,0
1178,-0.08643407799798834,-0.06808554009967817,0
1179,-0.080421451628157,0.07638134768371546,0
1180,-0.08667900762240893,-0.025477760575830566,0
1181,-0.05286597178271768,-0.15669829497475557,0
1182,-0.03108625722694576,0.022441287288645667,0
1183,-0.037030456802631374,-0.002786093693604677,0
1184,0.022045665239970223,0.031197540202625242,0
1185,0.043767587747065295,-0.18160827971393173,0
1186,0.002274851220139675,-0.016647430545160324,0
1187,0.09619789434498775,0.06927621619559593,0
1188,0.004675553955196508,0.013874761376951426,0
1189,0.0797781105426043,0.09123792307328285,0
1190,-0.06131945251701027,-0.022266089711279573,0
1191,-0.046158361603201616,0.09260520425166718,0
1192,-0.12800565784766305,-0.07162414590330786,0
1193,-0.05572026684590317,0.13539330320073173,0
1194,-0.02438913937475002,0.012597471515135843,0
1195,0.10954392840599668,0.10900181951951417,0
1196,0.016682888889954003,-4.144804816881391e-05,0
1197,-0.09756296901712738,-0.025189683863425412,0
1198,0.029316228935870835,-0.09807899465768333,0
1199,-0.0817097666942878,-0.19907915213094696,0
1200,0.041035059274513806,0.16620895291248608,0
1201,0.02599303533730448,0.054488781176877034,0
1202,-0.04390999839785377,0.06031253825932798,0
1203,-0.020704049864796622,-0.005002047615922815,0
1204,-0.04120663880764276,0.048490141504459586,0
1205,-0.06335607448663841,-0.07717874289569399,0
1206,-0.0025817363499904943,0.031542041824007674,0
1207,0.01344621450598404,-0.12298047500107043,0
1208,-0.0841034267045443,-0.038880905002756275,0
1209,-0.005177894910714444,0.02782461537382619,0
1210,-0.07214951414198074,0.09238484113522595,0
1211,0.037395100601580765,-0.07268056878513769,0
1212,-0.02060261873235908,-0.2737301912675181,0
1213,0.03418460481448227,-0.07971240010675039,0
1214,-0.04099258577099653,0.18481550790351953,0
1215,0.06901333377309403,-0.05998601297538161,0
1216,-0.03389729690568672,-0.05775352801214323,0
1217,0.03595299943829759,0.060509785413383005,0
1218,-0.017283280346945172,0.04135285958964857,0
1219,-6.269658363731751e-05,0.07806525830346525,0
1220,-0.0398718031917694,-0.018291016359042817,0
1221,0.046870686578787846,-0.13578544280399524,0
1222,-0.08143055633060076,-0.029030602895500576,0
1223,0.042265656304935256,0.0712894266897334,0
1224,-0.04238702285852556,0.14330403829779154,0
1225,0.0016033614043648799,-0.07287872352616419,0
1226,0.04067131210778125,0.10433823439510453,0
1227,-0.07441953547936613,-0.07627133312536018,0
1228,-0.000782313680106584,-0.12090103093812529,0
1229,0.01822210159504991,-0.08416226384309813,0
1230,-0.01047016411019298,-0.0740371224078716,0
1231,0.12069799433674015,-0.09332385333209155,0
1232,-0.05082748464255498,0.01586813746241695,0
1233,-0.0928312268486599,0.25523066016593693,0
1234,0.03186087900689641,-0.08971123973189048,0
1235,0.05418590436715533,-0.049174167331446576,0
1236,0.02569292168857104,-0.25564404516365286,0
1237,-0.04573519525501674,-0.09304028722844235,0
1238,0.007039805107430088,-0.14324474543969062,0
1239,-0.042824750634056996,-0.0025280760477898005,0
1240,0.010969753553570608,-0.21591764931081217,0
1241,0.07484560170769765,0.11844445351693007,0
1242,0.02124412439667548,0.00019905551856944288,0
1243,-0.05017795135017704,-0.10639988386376066,0
1244,0.05199849688110015,0.051152560607035664,0
1245,-0.002996657658093043,0.07935951115767723,0
1246,0.0027036176001765154,-0.023867186256434535,0
1247,0.0434848871918155,-0.1523685428034895,0
1248,-0.023310199109873128,0.13793388679291263,0
1249,0.03416253328643522,0.11114619159970392,0
1250,0.0691781555083275,0.23471075011925524,0
1251,0.24668007151873764,0.17266074214078625,0
1252,0.42432109952567504,0.4396420061673115,0
1253,0.7123052125017362,0.595796181688795,0
1254,0.9331221780662506,0.9640263860967908,0
1255,1.5504633185906262,1.543572382419571,0
1256,2.2232776603133657,2.199545490949319,0
1257,3.0315326219542236,3.1504927787429278,0
1258,3.8952440773171206,3.90976926876582,0
1259,4.74646022463466,4.740663870382761,0
1260,5.612810727017406,5.603193256479076,0
1261,6.191333078091964,6.3446762988412155,0
1262,6.687730366491854,6.873391262573575,0
1263,7.0141153500838245,6.928859853860672,0
1264,6.845351381046767,7.033765101253005,0
1265,6.2316502267552245,6.336818526289732,0
1266,5.393782898806135,5.572720352491466,0
1267,4.174606041978298,4.189997481870971,0
1268,2.789934104551792,2.600682810505497,0
1269,1.3422906817755633,1.156647713403737,0
1270,-0.12784378168718152,-0.12200962533419543,0
1271,-1.4497771671082897,-1.4277306447996552,0
1272,-2.376816837065218,-2.275035245322031,0
1273,-2.9150277231329063,-2.9938131353797854,0
1274,-3.0176222352941373,-3.0486121729035016,0
1275,-2.6665484040826883,-2.751953049940179,0
1276,-2.278321436676514,-2.170153433786448,0
1277,-1.4426804804960742,-1.4156835625171873,0
1278,-0.4622351464562723,-0.5098152089571809,0
1279,0.22344500677457207,0.3250184610386986,0
1280,1.0797196530705468,1.0031942093763104,0
1281,1.47182586352019,1.5442007195047145,0
1282,1.5510365115336986,1.6723033781683698,0
1283,1.488096828814693,1.5499742236991234,0
1284,1.187916465781001,1.2169410321418064,0
1285,0.7961077271124283,0.6989061317899334,0
1286,0.4094446566429555,0.1659713384813567,0
1287,-0.16550070498603392,-0.11757047759622867,0
1288,-0.4618889067659332,-0.4960501587524648,0
1289,-0.7355659042935778,-0.8018135279185936,0
1290,-0.7322091720269865,-0.9316709899585209,0
1291,-0.8008197059661799,-0.6389827514213058,0
1292,-0.4610844396375463,-0.646439096643127,0
1293,-0.34048380238672604,-0.28340260466971634,0
1294,-0.14638953428905976,-0.12104907112406628,0
1295,0.12261598295643528,-0.01649894044801732,0
1296,0.2714339740027859,0.4190618115925878,0
1297,0.33031069390060686,0.32349405463190034,0
1298,0.3365802503242583,0.3798811506638551,0
1299,0.27526762813774613,0.41813891847085205,0
1300,0.12962881203023294,0.1786923827349022,0
1301,0.09511592397857196,-0.024680607748926414,0
1302,-0.04884391026219077,-0.1344983055393553,0
1303,-0.05677756620942762,-0.1774912372923592,0
1304,-0.11146232076442965,-0.04413433593035037,0
1305,-0.19083095908737469,-0.1921489942983794,0
1306,-0.17684893218859155,-0.08929422065896649,0
1307,-0.0935112460725957,-0.10113025428209343,0
1308,-0.10779120787441943,-0.07092971203296622,0
1309,0.10995835180646073,-0.05389945017937231,0
1310,-0.05340265271589715,-0.011135643805257178,0
1311,0.035393921966854994,-0.06740231341729216,0
1312,0.013742685560784125,-0.019817201065912213,0
1313,0.02656639472316962,0.04542753972926078,0
1314,0.015016893028438345,-0.08863053556188322,0
1315,-0.012706326490791908,-0.12097742826925217,0
1316,0.0671132893895425,0.12868643099241772,0
1317,-0.08105965161689005,-0.11377735514694327,0
1318,-0.03704253985005785,-0.0021205445600722666,0
1319,-0.116142578473691,-0.019839960600602932,0
1320,-0.004552915527722802,-0.0480623999229883,0
1321,0.06592871006211541,0.013191981644735933,0
1322,0.05456994462050181,0.05550434719352559,0
1323,-0.031020763464404025,-0.12454520090775968,0
1324,0.02479639286749432,-0.005923238133188992,0
1325,-0.033223014660769656,-0.03921284689982391,0
1326,-0.09903962965081065,-0.072096525183025,0
1327,0.024595736557967523,-0.0565407046384676,0
1328,0.0262661084109298,0.0499687657049721,0
1329,-0.0680459947834675,-0.008267385760046913,0
1330,-0.05509865088913774,0.05357617934364408,0
1331,0.061134235205731434,-0.0922239817483217,0
1332,-0.012932185130455461,-0.009435744485686471,0
1333,0.07796200810882287,0.006046061402529788,0
1334,0.012981638392006428,-0.0036602068243730313,0
1335,0.04306660960174185,0.10492057395501168,0
1336,-0.05773796347255223,-0.0230418192728585,0
1337,-0.06263933353770301,0.007056314840663587,0
1338,-0.12613330610976248,0.05032201799405438,0
1339,0.007189239959914139,-0.02119532190959559,0
1340,0.05401832615982859,-0.045987515058996065,0
1341,-0.02026306465747396,0.030806404317747914,0
1342,-0.011838544512528618,0.008095409444623763,0
1343,0.016523182619967904,0.1570849768033664,0
1344,0.09551355957802078,-0.017497771435201568,0
1345,0.046692925877824844,-0.11869479610064415,0
1346,-0.11041780135788408,0.0028146336419680074,0
1347,-0.03471708011577478,0.04588121725197068,0
1348,-0.08684072113302885,0.24086037877430963,0
1349,-0.014260477495061945,-0.08330540392742287,0
1350,0.14438939064509787,0.00018531856398036536,0
1351,0.050834155007266985,0.06802296420580778,0
1352,-0.016325402061989618,0.06535592023227903,0
1353,-0.013702010381760079,0.0622661720496444,0
1354,-0.00927606422931224,0.03542193267970651,0
1355,-0.041431911140548096,-0.006670663621606949,0
1356,0.10021123358221111,-0.06286107105860346,0
1357,-0.010619800804594771,-0.06622493433555217,0
1358,-0.05200069552194487,-0.06588875140023122,0
1359,0.08668503382271292,-0.10279985649842907,0
1360,0.07035875618125949,-0.18906663119585884,0
1361,-0.10797702406795576,0.1574002047812163,0
1362,-0.04714972180258549,-0.03729426223101315,0
1363,0.1060345553770739,-0.17928792038777766,0
1364,-0.04290573061303766,0.1428086262493948,0
1365,0.008790379685368131,-0.06760274002708948,0
1366,0.013126961344430784,-0.10963259267651462,0
1367,-0.08901255808484357,0.021213702338747052,0
1368,-0.006292870823823417,-0.045933009715544676,0
1369,0.05438693600676254,0.080016927219301,0
1370,-0.04254214274832361,0.06161622890387835,0
1371,0.02353100971277683,-0.13280692298814728,0
1372,-0.02826056023794534,0.010368971548089134,0
1373,0.059988803364578513,0.051892311789292295,0
1374,-0.014827368387985963,0.007569321040719071,0
1375,0.14456850814233954,0.22494724955368056,0
1376,0.23068405760398844,0.16327683859291475,0
1377,0.34774316718387593,0.346178446161517,0
1378,0.7165066693351254,0.6224920519203921,0
1379,1.0413337571739354,1.024686770856053,0
1380,1.4714426751330312,1.5485010333709237,0
1381,2.125292103288811,2.1258703342012764,0
1382,2.9442363989706593,2.9277837004635194,0
1383,3.759969490799005,3.6081128840793966,0
1384,4.643217071945448,4.719244613272617,0
1385,5.454863149187594,5.424942013010993,0
1386,6.160372678715591,6.2105507916559315,0
1387,6.693550690720702,6.716052461400791,0
1388,7.003503538562026,6.88160995583056,0
1389,6.857532255898327,6.8608438560635046,0
1390,6.371875937956466,6.3020703482304565,0
1391,5.479948384468194,5.620310142108281,0
1392,4.248944299857339,4.333322839822105,0
1393,3.0761415482919996,3.073618802515664,0
1394,1.5024173806402843,1.6599233050510198,0
1395,0.1195929807892655,-0.01676275230345463,0
1396,-1.219295904356663,-1.3508971354599322,0
1397,-2.3675262616673796,-2.1314566022581047,0
1398,-2.933706162785025,-2.768889258506237,0
1399,-3.0615079742769855,-3.094109658868441,0
1400,-2.7320859011442034,-2.6409258445650168,0
1401,-2.2537482898006895,-2.3498152249953987,0
1402,-1.6605710763032446,-1.5642558279795018,0
1403,-0.6699800091741631,-0.7139058441677407,0
1404,0.05419850598322759,0.235716922639176,0
1405,0.7711935969476891,0.6568386938308681,0
1406,1.3419132915584502,1.5651013388385757,0
1407,1.5969588507577572,1.440817958926348,0
1408,1.5500022201232984,1.5305060947052234,0
1409,1.162752674170416,1.252559392072554,0
1410,0.7551975885313149,0.8464621475548069,0
1411,0.4038622811190659,0.3368287715490702,0
1412,-0.11755489984706949,-0.13545832893400983,0
1413,-0.435084256076827,-0.37786943524165606,0
1414,-0.7375327349560836,-0.7377341647874134,0
1415,-0.7633157902533004,-0.7406129150569489,0
1416,-0.6880254857577979,-0.7676533838732712,0
1417,-0.4974844317158785,-0.7160997334877502,0
1418,-0.2967283508805413,-0.4255086296012698,0
1419,-0.14607423254737018,-0.02668173020232656,0
1420,0.12083063048704554,0.25111832675384355,0
1421,0.22624406022284785,0.1356041452316213,0
1422,0.25221014373726236,0.25150029179016375,0
1423,0.30341106398603396,0.18104425818259848,0
1424,0.322004762225858,0.4223313004612632,0
1425,0.158791881231879,0.2468819323938333,0
1426,0.07981425439496329,0.2636182983242135,0
1427,-0.05537421515649998,0.06529099496781639,0
1428,-0.028420863230100644,-0.07089100541819524,0
1429,-0.1181600879370457,0.011096279977105522,0
1430,-0.09921734090851142,-0.14130163458642186,0
1431,-0.10670626836161702,-0.061534574451227626,0
1432,-0.02301120428571908,-0.24601056334622123,0
1433,-0.05182494454736789,-0.09890218916090962,0
1434,-0.09599200032037211,-0.0062578001141521695,0
1435,0.02454927207772648,-0.14666352382851106,0
1436,0.10741593616510393,-0.004000904839649013,0
1437,-0.04626110567429771,0.13574071795751919,0
1438,0.04423565055706512,-0.24389651308283106,0
1439,0.10237118287398574,0.10733989687571137,0
1440,-0.0056495245535026755,-0.2459841015339659,0
1441,0.02242594282877914,-0.11110847842188602,0
1442,0.055717535444496834,-0.047948146614640946,0
1443,0.08759127253281822,-0.03711397777350554,0
1444,-0.020761579220833035,-0.023677990702254893,0
1445,0.03510827606674584,-0.014729009992086609,0
1446,-0.056590928570975224,-0.17118610121114727,0
1447,0.04031692110556992,-0.09044056447945252,0
1448,-0.0026720716700738213,-0.06573902367748354,0
1449,-0.03065586442859826,-0.09217515622509766,0
1450,-0.04375073102857588,0.1958117260498158,0
1451,-0.040055095863889,0.1901469307339856,0
1452,-0.0689731146382595,0.057626701532365196,0
1453,-0.018569560922489573,0.11410500135395589,0
1454,0.06390432844053111,0.04626205844862146,0
1455,-0.04067299425625363,0.0357535199469382,0
1456,-0.009398643635701706,0.21222566922690933,0
1457,0.01385185468273285,0.018911593692263123,0
1458,-0.04146405406453306,0.11215867011829608,0
1459,0.048099210847596066,-0.12398744168447885,0
1460,-0.01710859955653237,-0.05409821570958393,0
1461,0.08204326560475322,0.050009223866436324,0
1462,-0.0024199021342846197,0.015362644048906623,0
1463,0.035058235497027836,-0.026285310701748176,0
1464,-0.005809029935022797,0.10121072448918791,0
1465,-0.0025297059156044683,0.11347036563070781,0
1466,0.039565962049757986,-0.020871214760998177,0
1467,-0.01575740011911325,-0.09355020572417982,0
1468,0.011810795492156174,0.05564247273051049,0
1469,0.08998450541153848,0.09435129430412081,0
1470,0.04278008069288864,0.01150233814101073,0
1471,0.008021998022595091,0.011302192261671605,0
1472,-0.002798294691630385,0.10122350357175057,0
1473,0.010322153544391187,0.11670568709224508,0
1474,0.06649025734487493,0.09408275145511663,0
1475,-0.049467444608689376,-0.0789276629627737,0
1476,0.07006080527345782,0.16084579117607314,0
1477,0.005091545582514639,-0.020948515937251826,0
1478,0.06401819575985163,0.11822561790285907,0
1479,0.04275281410033028,-0.021674720671173413,0
1480,0.12171510639033814,0.08937911923866061,0
1481,0.02431448031904827,-0.08367805311935804,0
1482,-0.010700175868157512,-0.18148203398595583,0
1483,0.024971247394021838,0.0030105692639727445,0
1484,0.018782469918393743,0.022623952099103534,0
1485,-0.024249061379982752,-0.1126143578637639,0
1486,0.0334701806501129,0.008572802083658812,0
1487,-0.027887976430053935,-0.10065801130052078,0
1488,-0.0106821863100776,0.12268373949509288,0
1489,-0.14782508181510623,0.18307992867815429,0
1490,-0.10599871459683174,0.12194282035396609,0
1491,0.05459566003453203,0.009352629800949384,0
1492,0.008170739258157048,0.20949127116102795,0
1493,-0.028223158644524328,0.21226298431030197,0
1494,-0.029549859744863974,0.15664670529625116,0
1495,-0.07250049029092107,0.04030924383300115,0
1496,0.017815904390929553,-0.050911358682508456,0
1497,0.05383193605889412,-0.0005751510620385354,0
1498,0.08826033547313682,-0.07545027666459188,0
1499,-0.00513859897283634,-0.16280320972950507,0
1500,0.17570383304877588,0.12060143900057399,0
1501,0.21641051214669282,0.23928473154104313,0
1502,0.34249180613063046,0.48350141448535533,0
1503,0.6150098637072713,0.5067030595035257,0
1504,0.9530216592963061,0.9750120635614595,0
1505,1.4998782807957198,1.3082033091158165,0
1506,2.065048742478013,2.1763554626240147,0
1507,2.8436674405694524,2.8218987610101447,0
1508,3.641323902253867,3.6503032635033676,0
1509,4.5394259209485694,4.434298315590012,0
1510,5.2602760454623985,5.3026581282592815,0
1511,6.059581701595184,6.012218438261146,0
1512,6.628212728682261,6.9012116173429625,0
1513,6.920618267041225,6.857029083385935,0
1514,6.859557268682283,7.033513345317692,0
1515,6.472999555885767,6.475675314530956,0
1516,5.63739934277455,5.542962560521807,0
1517,4.5210741907922545,4.574667834687512,0
1518,3.121488962646612,3.1907786163683824,0
1519,1.679526730781344,1.6681460470985543,0
1520,0.29527991265327524,0.1858612365556831,0
1521,-1.1420590269021453,-1.0057053826232352,0
1522,-2.2037299161979242,-2.078357058388879,0
1523,-2.7265925822023074,-2.809268394687452,0
1524,-3.0192789191898632,-2.8224811991025995,0
1525,-2.934621243392187,-2.774127266077606,0
1526,-2.372490892798519,-2.378531124329676,0
1527,-1.6609392506424958,-1.587278433949492,0
1528,-0.7545018706209243,-0.631242609001577,0
1529,0.007795618855063677,0.1515378243535344,0
1530,0.85952033393724,0.8094720412944463,0
1531,1.411915585889344,1.4638215269882198,0
1532,1.6127044317189736,1.6684848084983543,0
1533,1.6338792910767501,1.3873523100554137,0
1534,1.3301550772558097,1.1450006852707806,0
1535,0.9719004214301366,0.9930398898445996,0
1536,0.47316110624878,0.4255158288012378,0
1537,0.012915972990602216,0.09006109301001723,0
1538,-0.4162233689164903,-0.3175574112770825,0
1539,-0.7619860869180408,-0.6849136975157537,0
1540,-0.782115502040205,-0.7275190405632348,0
1541,-0.7500933027811805,-0.6632071289164331,0
1542,-0.5944195288311445,-0.6383744159080901,0
1543,-0.4187406160995647,-0.38973329355198283,0
1544,-0.08671441535889582,-0.2507220119025034,0
1545,0.009327591043560547,-0.11077959382440739,0
1546,0.2300690346820186,0.31041513930587084,0
1547,0.3856209391855161,0.38138039887969855,0
1548,0.3564899591548607,0.15763680739772273,0
1549,0.2759209794763771,0.4654417475853655,0
1550,0.2543999691340596,0.1385087074683686,0
1551,0.2054490245342337,0.2397789391138027,0
1552,-0.028973095004842915,-0.05481639494488632,0
1553,-0.000605269532925147,0.042816272800387585,0
1554,-0.13543925708704513,0.0563282420197055,0
1555,-0.1656366383230451,-0.14968562045340678,0
1556,-0.11265962794531485,-0.3112123103720039,0
1557,-0.09943485980488442,-0.1847592816065435,0
1558,-0.07013750922656406,-0.13915231201437708,0
1559,-0.06493077208990199,0.1256083324945343,0
1560,0.09569059054897976,-0.03435053770631375,0
1561,0.11053191285179324,0.04258734292728252,0
1562,0.10409444001587612,0.07853505359749816,0
1563,0.08453589399918399,-0.16545974244400874,0
1564,-0.011317250975057525,0.0798091041819903,0
1565,-0.0456752787017069,0.06821477650258753,0
1566,0.0156394751935454,0.10917481924648191,0
1567,-0.052272557650938606,-0.13171028153154754,0
1568,-0.07754269742404599,-0.052200379074985565,0
1569,-0.02796813351664544,0.03206400426737835,0
1570,-0.09310618260481426,0.1317079875774527,0
1571,0.05995504403782329,-0.1613476064731371,0
1572,-0.1299651203014327,0.0928219196094762,0
1573,0.011447895425155471,-0.02436434806401603,0
1574,-0.03729875001974477,0.18961533284580911,0
1575,-0.04346911963634923,0.1831847461963091,0
1576,0.06349617174101221,0.1083808343198174,0
1577,-0.03490855466918055,-0.019949011844234473,0
1578,-0.022461890716217594,0.05104623717840132,0
1579,0.02690992289515976,0.016359780681754026,0
1580,-0.051622306808040155,-0.12873973589625062,0
1581,-0.09021533233897465,-0.02802433061620161,0
1582,0.06815842141936958,-0.08178467621480603,0
1583,-0.03878629025308095,-0.1655234412396359,0
1584,-0.13379624800287088,-0.13022808476674042,0
1585,0.0024309508537761616,-0.11928362686938715,0
1586,0.017502177296007847,0.034940743465947416,0
1587,-0.006724257277736293,-0.10951186435832104,0
1588,0.026861335887342803,0.010219299919322574,0
1589,-0.06148258646406883,0.12059566141109776,0
1590,-0.05558784522995468,0.04979762823222009,0
1591,0.010626128203428049,0.08960030716490477,0
1592,-0.015879419381308192,0.11534279030302722,0
1593,-0.11625494044714074,-0.042947531516843294,0
1594,0.019508331257395796,-0.06972670958592837,0
1595,-0.007589193520923002,0.06064867656957496,0
1596,-0.05330903662463689,0.21663607176408523,0
1597,0.0013201283951345657,0.07341840385108758,0
1598,0.010417474135401733,0.02401342438842942,0
1599,-0.011584973980688945,0.006569234434954567,0
1600,-0.005553959795232668,-0.03833475266754235,0
1601,0.04252458802608351,-0.13718403077974764,0
1602,0.027909867873616045,0.001322490301574331,0
1603,0.09112350374556259,-0.14243752082632016,0
1604,-0.02589821975195569,0.12715485104187382,0
1605,0.08657819492990558,-0.07336153866889421,0
1606,0.11695741252681807,0.09359856332495288,0
1607,-0.01709266766435712,0.1614202095146092,0
1608,0.04243162655896014,0.1488427321999107,0
1609,-0.0914200108906562,-0.05824810163987357,0
1610,0.02092704549570565,-0.12602592700052717,0
1611,0.06259771572218166,0.0991601943001418,0
1612,0.035699553765923986,-0.011511329623054444,0
1613,-0.06045595865864157,0.0429240465567154,0
1614,-0.006416303934505988,-0.031237453475314113,0
1615,0.053659596542584745,-0.10303589235609507,0
1616,-0.005735630111759081,-0.08624612402934734,0
1617,-0.06640147079898458,-0.1580814893310079,0
1618,-0.025390810732474265,-0.023634947023981216,0
1619,0.04626310384618525,-0.1560766962022502,0
1620,0.07883884278887901,0.061956692279032916,0
1621,0.09989325274591908,-0.21931120023636147,0
1622,-0.028805630950608882,0.11910443728719586,0
1623,-0.09833648705618826,-0.11251766179419673,0
1624,0.065131587798943,-0.008502432133214333,0
1625,0.08143021625601092,0.03796068681853629,0
1626,0.09699580899646931,0.2516315298088953,0
1627,0.323893239653783,0.3083888498138848,0
1628,0.4716893949284907,0.7027450878651211,0
1629,1.0457031950421747,0.947142146567193,0
1630,1.3152512206407827,1.2374642899323598,0
1631,2.0030233399153174,2.053487691941836,0
1632,2.6665816870243826,2.7325803832491924,0
1633,3.6177490411315834,3.3981457357569735,0
1634,4.451072238399108,4.275446084937799,0
1635,5.1821287297430985,5.372563223328891,0
1636,5.976198972502469,6.074201430518317,0
1637,6.602747055067952,6.671999600406908,0
1638,6.845510056564822,6.9675665983644794,0
1639,6.898153265625397,6.836376630774171,0
1640,6.51388001322114,6.564327606063869,0
1641,5.727245252539458,5.782717855920504,0
1642,4.729010002879084,4.73612168826333,0
1643,3.417022685060225,3.2329518537861257,0
1644,1.8515793678717232,1.9227096415521074,0
1645,0.5465368041629634,0.5554060803667592,0
1646,-1.0066680003732384,-0.9533425834619736,0
1647,-2.072222136567524,-2.034979826690218,0
1648,-2.7660082039371714,-2.7423093658322766,0
1649,-3.0711134277234744,-3.118520058051727,0
1650,-2.95271992346348,-2.9046049590711345,0
1651,-2.440749773804625,-2.395642849134932,0
1652,-1.8114632817128296,-1.7450790067506725,0
1653,-0.9409203389323837,-0.8627955212716895,0
1654,-0.035611131527238056,-0.004633770057541342,0
1655,0.6624295374728483,0.6195272137436098,0
1656,1.2934451439004293,1.2895966464670507,0
1657,1.5744109154726498,1.4351756065738652,0
1658,1.5674065142491753,1.3862558136407412,0
1659,1.352056028686956,1.4348915337601988,0
1660,1.0371077125461732,1.1393176116019914,0
1661,0.5787346855706197,0.501203916296856,0
1662,0.02099617378400387,-0.04021596855299276,0
1663,-0.34199933151774053,-0.3027445828343662,0
1664,-0.6978636422369795,-0.6552494817815322,0
1665,-0.8106706052049312,-0.7426569130341177,0
1666,-0.7614994022795267,-1.0293639409912942,0
1667,-0.6259681108595284,-0.6562346536642766,0
1668,-0.4437388240690734,-0.4615402051609169,0
1669,-0.12631512210518936,-0.23708854169282284,0
1670,0.024829060046760325,-0.0867812224771154,0
1671,0.17115415771326123,0.09248916643158023,0
1672,0.23538694510988473,0.3598861890408109,0
1673,0.3280461700310603,0.5536132043515305,0
1674,0.35931841781758994,0.2544545382709513,0
1675,0.15853267344553534,0.2721118463768226,0
1676,0.08637155834678284,0.304422268457113,0
1677,-0.014533033867270805,0.08744564964351231,0
1678,-0.11838933964917103,-0.03148098013124527,0
1679,-0.02153568339315351,0.09330507011703162,0
1680,-0.185251198832813,-0.11973148093036963,0
1681,-0.09120540279012597,-0.22545179616619587,0
1682,-0.1361990466180965,-0.2309156942792138,0
1683,-0.027257639540340294,-0.05885704820481991,0
1684,0.020248744744947568,0.01459372469010626,0
1685,-0.06954881221569009,-0.07978336495996352,0
1686,0.04794338545502218,0.22290441836531671,0
1687,0.02051614328786789,0.18978823932440278,0
1688,0.016277296436530978,0.05690695362335873,0
1689,0.056953711023237555,0.02672862470713373,0
1690,-0.01741704511539626,-0.09421871608310725,0
1691,-0.06364906841184197,0.08862623829764227,0
1692,-0.046819058202552284,0.013192422371585796,0
1693,0.011613879805510718,-0.08551283358685885,0
1694,0.040628796208257836,-0.05880438259064117,0
1695,0.011662458583782486,-0.045616460949440156,0
1696,-0.012825015829821637,0.15460819114529895,0
1697,0.001731148015143263,-0.08070850469497554,0
1698,-0.0834724621751609,-0.00837670471100129,0
1699,0.05516259576120034,-0.10570640007604383,0
1700,-0.0780211351605178,-0.06776200673958696,0
1701,-0.06227652583131841,0.21921342728097173,0
1702,0.023087686424368474,-0.004738724039286902,0
1703,-0.08256872888112261,-0.30140164105879846,0
1704,-0.09520631215246757,-0.016054497260005858,0
1705,-0.011433436567150321,-0.2146056861342291,0
1706,0.041661506162209413,-0.15215446807259772,0
1707,-0.1026784077468179,0.01570811511550679,0
1708,-0.022691719629679936,0.027922789708361997,0
1709,-0.015653528013441644,-0.02668954400080352,0
1710,-0.008704744065555586,-0.12930944035250463,0
1711,0.02900510463283696,0.08874761163329578,0
1712,-0.01798711333357555,-0.018206920925073197,0
1713,0.01418408453725,-0.03696856130601942,0
1714,7.819216296678827e-05,0.22262292195090413,0
1715,0.04305603873931626,-0.041288684440765715,0
1716,0.07034197704116778,0.029575463700082506,0
1717,-0.016655411721436714,0.14256905386416097,0
1718,-0.011240223559391338,0.07436920758285671,0
1719,-0.04685341270225552,-0.11706530966661857,0
1720,-0.056224989584190165,-0.05505053397103533,0
1721,0.052642392770750404,0.0004995621865881612,0
1722,0.030940276615612404,-0.023778721412805265,0
1723,0.044363786025485505,0.11357383157515662,0
1724,0.041033697450816975,-0.01934245339283185,0
1725,0.013415503305805218,0.05964074622526248,0
1726,0.014730475727779338,0.0021384023145272543,0
1727,0.049757048441410524,-0.0015251692175478069,0
1728,0.057700546271473696,0.08455272979512819,0
1729,-0.004434012837943794,0.046015886324201574,0
1730,0.0392362561080812,-0.048498076920425626,0
1731,0.041533638467083744,0.02245686995716163,0
1732,0.00054914138755515,-0.05295953362515081,0
1733,0.0013473652490230675,0.09102465363420463,0
1734,0.05195647297817698,-0.06655861590098565,0
1735,0.020284048037466803,-0.09768949141653861,0
1736,0.002775391867544006,-0.005260898401894679,0
1737,-0.058540149577156635,0.09190889751721802,0
1738,0.013489865502289627,-0.08854040329020425,0
1739,0.06484560124142405,0.07033081301442415,0
1740,-0.03644632498223407,-0.04365176722726095,0
1741,0.04024425745336986,0.1704789737000069,0
1742,-0.00097865332938035,0.062620110044753,0
1743,-0.010649315617669344,0.06433117444709387,0
1744,0.0049683733381278945,0.07814478752948341,0
1745,-0.05373845558306927,-0.07241831459555233,0
1746,-0.06746523704868554,-0.0900186386140649,0
1747,0.00758263748992727,0.08576286772206723,0
1748,-0.03717635743600334,-0.1467597917033612,0
1749,0.029575427169869058,-0.13377310841697726,0
1750,0.08588625095269259,0.030304662312981928,0
1751,0.10265543033917049,0.07204072310960191,0
1752,0.2852576937066583,0.38746563089186714,0
1753,0.45656889592593347,0.39331981000222005,0
1754,0.8171542796222457,0.7748202438949174,0
1755,1.2682927979567569,1.3405117861158693,0
1756,1.8196787538004635,1.9335590736559474,0
1757,2.6175665441394216,2.5839676071817457,0
1758,3.4255792543756174,3.4428321503870927,0
1759,4.342372417915347,4.2563249650664705,0
1760,5.1533631866288285,5.133946242021371,0
1761,5.892971344401471,5.873488039075044,0
1762,6.47826212091437,6.533236636039509,0
1763,6.930171596721707,6.856833630740034,0
1764,7.009174979540856,6.790534592413298,0
1765,6.624059577489786,6.699240922499781,0
1766,5.839836592575842,5.795797089044493,0
1767,4.821438341902632,4.735372759883051,0
1768,3.614632459805704,3.47237064327009,0
1769,2.1885006680341954,2.0435795423310052,0
1770,0.6715676089929831,0.5740225014921239,0
1771,-0.7249178454818229,-0.9319834719452038,0
1772,-1.9513055557501755,-1.9555820510272335,0
1773,-2.5669518620880383,-2.847063157188216,0
1774,-2.9486714922686628,-2.8953569613740915,0
1775,-2.84827674352029,-2.9345380132150067,0
1776,-2.57475037980057,-2.6930465384642557,0
1777,-1.8231459115389959,-2.0043001593011662,0
1778,-1.0520924080164564,-0.9482281701264118,0
1779,-0.20291777893602253,-0.24009375619372558,0
1780,0.6638203147828345,0.5663766079181735,0
1781,1.3944172719790529,1.187449038562967,0
1782,1.5875566982398652,1.6226229592116708,0
1783,1.5674164380299638,1.4241532776811048,0
1784,1.407943462061546,1.3519285079403751,0
1785,1.0204518545599406,1.0397167317779554,0
1786,0.46800267621391933,0.6353929392030403,0
1787,0.13029355332972442,-0.005575069566024535,0
1788,-0.2928727896219899,-0.04487031457035695,0
1789,-0.7033918112396683,-0.5589315739125956,0
1790,-0.7975406065754552,-0.8557993873780294,0
1791,-0.7812893337551924,-0.6424355244193308,0
1792,-0.6527612755151081,-0.5849036568306246,0
1793,-0.5135331202799194,-0.4164555469253496,0
1794,-0.1721622667377101,-0.11886236836313663,0
1795,-0.019513271908827397,0.19802215147212246,0
1796,0.21699528176644967,0.10381364177916003,0
1797,0.32964863376549247,0.1982659853814297,0
1798,0.3009183090556338,0.23036380374185944,0
1799,0.350974391227541,0.47439835959460186,0
1800,0.2453378199538013,0.16247602119062093,0
1801,0.07581484856449838,0.12158075075678455,0
1802,0.04916477466452461,-0.09167239272515681,0
1803,-0.0025972870285300917,-0.1181124199833473,0
1804,0.013065501566292756,-0.08090536298109406,0
1805,-0.05085802924164634,-0.1474386171958827,0
1806,-0.10291016162808506,-0.0679202588015715,0
1807,-0.1086252110581811,-0.10858914279629862,0
1808,-0.07331442615423817,-0.09452972985634986,0
1809,-0.008745679905827137,0.13142157645950553,0
1810,0.05929272645496198,-0.17852689994466858,0
1811,-0.01787332047221159,-0.00447262314110158,0
1812,0.05889210220864362,0.12023590762060134,0
1813,-0.03553322228236823,0.011199752373039561,0
1814,-0.022797480841448087,0.2062766239430314,0
1815,-0.017792212224221685,-0.03748675353077019,0
1816,-0.0525740640209714,0.11814751648576136,0
1817,0.030730967003109903,0.10816295858040965,0
1818,0.015824681978955823,-0.08944117479732851,0
1819,0.10424468491878125,-0.10239202335168163,0
1820,-0.03393273717630542,0.16270870498139423,0
1821,-0.018740578948907897,-0.055832715343881366,0
1822,0.0468886380310595,0.05869273561403867,0
1823,0.06004804163077721,-0.14794926798359037,0
1824,-0.04072885909831464,0.04594522759354784,0
1825,-0.03340758020502807,0.07905544249530713,0
1826,0.007889725309889668,0.09670744158234197,0
1827,0.037978986947028885,-0.027400783725109727,0
1828,0.08359171918881884,0.13615495778310077,0
1829,-0.017430971467554023,0.21994881919703801,0
1830,0.03950817496539324,-0.03427726905341285,0
1831,-0.042341169706046934,0.11889839691228007,0
1832,0.03542971949030705,-0.05950840647613349,0
1833,-0.07268406967750633,-0.055985740324016625,0
1834,0.08236279509334457,-0.2076261520261997,0
1835,0.0441310471360748,0.13914489753309825,0
1836,-0.03577456211630237,-0.09492270718824372,0
1837,-0.016435211531599186,-0.24929527991300315,0
1838,-0.0021504222367393516,-0.020090651259818855,0
1839,0.03847021875597877,0.04803710109603918,0
1840,0.041251165557301496,0.08116264561011644,0
1841,-0.011773646652327809,-0.12906094347539848,0
1842,-0.15417524163357613,-0.08662911036842776,0
1843,0.007919816376789362,0.008264104935631612,0
1844,-0.022003498923880576,0.15188857480073958,0
1845,0.035674097239618875,0.16509919998788156,0
1846,0.0009534691043524476,-0.0523044199950205,0
1847,-0.053511380627945804,-0.02399940935124108,0
1848,0.044823075752660604,-0.025702499462301385,0
1849,0.03991391764705455,0.045717650930949524,0
1850,-0.006472768582741073,0.020095772120595278,0
1851,-0.0422353563136568,-0.02329104136845885,0
1852,0.014168290299975397,-0.1265569532877513,0
1853,0.11653381217502878,-0.008454740475055192,0
1854,-0.056773504971480586,-0.022152269390676795,0
1855,-0.014250965404045447,-0.08562834142508419,0
1856,0.02432050565981427,-0.20217443688015968,0
1857,0.017538087688759467,-0.15218440498137814,0
1858,0.006612613119777636,-0.08899481932860331,0
1859,-0.0918155874900672,0.010221310304916683,0
1860,0.022978917469572157,0.09144163653701207,0
1861,0.00203088597506758,0.05812443802169171,0
1862,-0.051281996793218175,-0.20010447571631973,0
1863,-0.012749351419419486,-0.04589966433180185,0
1864,-0.0636128285875535,-0.17361533090406275,0
1865,0.08080670659413298,-0.03945375652441846,0
1866,-0.034254066792905075,-0.06716561721213338,0
1867,0.0498059238851474,-0.13791057469543502,0
1868,-0.029471900873192663,-0.08341810035324335,0
1869,0.042059573680841386,0.1383597056268333,0
1870,0.07595802213634631,0.04209938303382322,0
1871,0.013632134523820314,-0.008100648197550585,0
1872,-0.00589439315774405,0.08982884270144635,0
1873,0.0414107870929924,-0.24105299728923246,0
1874,0.08496041700267737,-0.11376805615020248,0
1875,-0.02751750347339417,0.03543205392873501,0
1876,0.17800240086416963,0.16679116612329642,0
1877,0.31425509208207664,0.27333205518158776,0
1878,0.5155977675745197,0.6395923110510636,0
1879,0.7375112170825204,0.989089452495251,0
1880,1.2214300753053156,1.054383725255368,0
1881,1.7831745879935448,1.7141032026810497,0
1882,2.434132539573598,2.470988080024715,0
1883,3.3626810244771606,3.2335861391897716,0
1884,4.1977424819905975,4.145530992371633,0
1885,4.956575087482008,5.017133267874335,0
1886,5.907123825589299,5.680724558157328,0
1887,6.434846036546817,6.401835327684421,0
1888,6.829136326386303,6.95858618274506,0
1889,6.924502675261486,6.949532892191367,0
1890,6.62312842236525,6.78676967872017,0
1891,6.098579676579972,5.952432066114368,0
1892,5.09400550940768,4.827018700696845,0
1893,3.703208159182245,3.8855353310749745,0
1894,2.2154290659750595,2.367341057131567,0
1895,0.7959531354471088,0.8686747638175244,0
1896,-0.6392863647516017,-0.8175571985437275,0
1897,-1.8301647178621898,-1.7376943872148158,0
1898,-2.6121643151034255,-2.6481558084600985,0
1899,-2.985071454329218,-2.983833006455058,0
1900,-2.9871299905362436,-2.8749078676595223,0
1901,-2.6498363408537626,-2.519685981112942,0
1902,-1.9493694067156135,-1.9992916062647665,0
1903,-1.1633080748863833,-1.128181257151531,0
1904,-0.2296332778970016,-0.23639653030308014,0
1905,0.560755301817551,0.5369421936518852,0
1906,1.2431959521786131,0.9397909312673229,0
1907,1.5406413914486425,1.3381824828858355,0
1908,1.5198225796494984,1.546079985135454,0
1909,1.4484013539099314,1.329795030785917,0
1910,1.104093550938409,1.2108083622255617,0
1911,0.6097337478831291,0.5242935215149279,0
1912,0.09310316516788097,0.23129893905234927,0
1913,-0.21047938802492383,-0.29476347133877634,0
1914,-0.4550517896987038,-0.615068274001703,0
1915,-0.7371822071947551,-0.5963013557614889,0
1916,-0.7376133093518166,-0.6842103377478976,0
1917,-0.62532007019985,-0.7493564443961224,0
1918,-0.5314076625231884,-0.5343904026888298,0
1919,-0.2606086380681601,-0.3787307598483691,0
1920,-0.057712353975126654,-0.042404170231147204,0
1921,0.12137530789221171,0.24814173481763802,0
1922,0.2919108501724168,0.32011370817497453,0
1923,0.3366663452255433,0.3529325142319548,0
1924,0.3295393756448563,0.45740634512282746,0
1925,0.21580930075410365,0.38824030491598716,0
1926,0.06037865484957697,0.2719557877866068,0
1927,0.05440151742561992,0.14821886301141635,0
1928,-0.08938486306812068,0.06274634409317,0
1929,0.017791600232724164,-0.06408210128842691,0
1930,-0.1281774942857462,0.025103329183709666,0
1931,-0.05880320951881595,-0.14928397807611635,0
1932,-0.1338343930266164,-0.1337243067104031,0
1933,-0.06598147902355198,0.04716358929072567,0
1934,-0.04889048890958193,0.16891428388101565,0
1935,-0.044058386985362026,-0.10071549396541715,0
1936,-0.03392436663319376,0.16827883351650294,0
1937,0.048362336688809314,-0.021951441735905408,0
1938,0.09662851652998192,0.012287110645168083,0
1939,-0.028350230931092988,-0.1252393446087056,0
1940,-0.02687502664176527,-0.03010680291112105,0
1941,0.00798573573162165,-0.057854838157649906,0
1942,0.04627568429697751,0.03984771532496857,0
1943,0.0630022230994258,0.1154037393972196,0
1944,0.011118893413382375,0.021601920734734544,0
1945,0.011451791989092823,-0.022890404377651836,0
1946,-0.03142320989257416,0.03929303726046472,0
1947,0.0626618829761623,0.015774746634064443,0
1948,-0.053438231345642156,-0.15466062382594564,0
1949,-0.01695179712589506,0.19736900467244048,0
1950,-0.13119566893484572,0.22505178602542392,0
1951,0.11911846214619823,0.03586501052645,0
1952,-0.05082486343322822,0.14641726815200018,0
1953,-0.11080275747959839,-0.06539277059071079,0
1954,-0.08773967508017004,-0.19553562311900605,0
1955,-0.002262973651339293,0.19539313421067706,0
1956,0.029403129139192196,0.0020812165765740874,0
1957,-0.06435608022680765,0.06697271479183213,0
1958,0.1318310675608219,-0.012161493913490863,0
1959,-0.035771438376329234,-0.08583708097252465,0
1960,0.06602769985103325,-0.05050786072012503,0
1961,-0.01877281099708957,-0.044160967967603326,0
1962,0.060911704581009085,-0.2192688667699922,0
1963,-0.040618676209204244,0.03969191765029274,0
1964,-0.05404796128194293,0.0387398329840421,0
1965,-0.0020208147576656283,-0.011513426512155036,0
1966,-0.011181792790031588,0.2071920163419461,0
1967,0.016799347117516822,-0.0042481013379590425,0
1968,0.023820288577345118,0.11494343074849174,0
1969,-0.020679148653932455,0.06906854364239597,0
1970,0.007529894174883957,0.1418708399727334,0
1971,-0.06094683939966806,-0.03562882786655084,0
1972,-0.002671458051955758,0.1445992771379442,0
1973,-0.02888402028355406,-0.10383810319424826,0
1974,0.016395796107693858,-0.09226687404204176,0
1975,-0.02365706343771342,-0.08939945993800438,0
1976,-0.05479131430377149,0.03277529824885334,0
1977,0.012336215008665372,0.031463620385222185,0
1978,0.007447500603015652,-0.043668982174667394,0
1979,0.04872749208179586,-0.04176095961627284,0
1980,0.005931238160954819,-0.02562234099454159,0
1981,-0.033124830463928424,-0.1805388246112281,0
1982,0.006732887422223399,0.09590770379562823,0
1983,-0.011776623204855638,0.13421153568815458,0
1984,0.06470803279425148,-0.043355181339488666,0
1985,-0.0953035439392153,0.01862559915428286,0
1986,-0.026693041217480902,0.0727230750035291,0
1987,0.04409125237906578,-0.010366112031037114,0
1988,0.0592165540009613,-0.06425737218789389,0
1989,-0.04853037429474698,0.10646655042279403,0
1990,0.05754278625092849,-0.08958774923037031,0
1991,-0.022317373993045373,-0.047601215716403286,0
1992,0.055861913432138734,-0.1507763125607678,0
1993,-0.08683028652417255,0.05903081098596754,0
1994,0.03858029564522743,-0.03076157902917856,0
1995,0.058150077991503575,0.06036003229597708,0
1996,-0.05863772404111686,0.041125825852457915,0
1997,-0.08212491857683972,0.04765359211217678,0
1998,0.023091410629295872,-0.10951691617206183,0
1999,0.031008439392157146,-0.0047793275447266265,0
2000,0.04341664231267123,0.0917857750098032,0
2001,0.1780197025002759,0.1846259907730119,0
2002,0.21298038091667268,0.3202808773944324,0
2003,0.45865965386741064,0.6513245304499524,0
2004,0.6919515318547134,0.7848184112925287,0
2005,1.1142253087919016,1.1415644852927052,0
2006,1.6914300656346972,1.8073113331123478,0
2007,2.3918520741897646,2.473012125963623,0
2008,3.209848935491574,3.0171387492777013,0
2009,4.085334127730349,4.08134821176383,0
2010,4.921694599645895,4.937394847781829,0
2011,5.704278284593407,5.565937996110946,0
2012,6.346632260943439,6.312749183632835,0
2013,6.6861343853275255,6.972290591956097,0
2014,6.918131052597376,6.913805016352012,0
2015,6.684672058028688,6.547227735072767,0
2016,6.135909907348378,6.060546301255289,0
2017,5.180276683580146,5.3308915274838595,0
2018,3.8922002504536395,4.145873981858747,0
2019,2.523392735374056,2.4182972155830456,0
2020,0.9853495657165471,1.0550031927298424,0
2021,-0.4170101512981292,-0.40057649518445604,0
2022,-1.5436381026205255,-1.5324719870157502,0
2023,-2.4849948781201756,-2.6239522121148706,0
2024,-2.962738130596085,-2.9854403259882347,0
2025,-3.062012215062705,-3.1319688514009463,0
2026,-2.665584199885621,-2.5181809317492907,0
2027,-2.012596531377195,-2.0291341831419496,0
2028,-1.2158352826948282,-1.3832883652306645,0
2029,-0.43768054368226816,-0.47261697666041425,0
2030,0.3466403082223378,0.4500300082874731,0
2031,1.1251937483254024,1.1107668766223793,0
2032,1.4208029179462227,1.5130780519173979,0
2033,1.4964055288398936,1.7694262659325628,0
2034,1.4327670491347737,1.410844280608242,0
2035,1.1189622583295364,1.0486519649812258,0
2036,0.7145824853235236,0.661632970683012,0
2037,0.2517434392426183,0.26205803494071533,0
2038,-0.22945978565474354,-0.19551744486624245,0
2039,-0.553531785546083,-0.5609601761804911,0
2040,-0.8107183120459882,-0.8844115028333877,0
2041,-0.8060023213525226,-0.7657689671491879,0
2042,-0.6920547910326904,-0.7645819880790409,0
2043,-0.3837350978227823,-0.6456900947778137,0
2044,-0.20316828321255706,-0.18233830290751019,0
2045,0.004202569066153766,0.04691799747202449,0
2046,0.15532129761188812,0.2100807945901792,0
2047,0.20277381080276868,0.3753941584281143,0
2048,0.28357293055525445,0.3676163724483251,0
2049,0.3108001643121026,0.32696635342791663,0
2050,0.20185375293056002,0.3447351388513406,0
2051,0.12873500137104818,0.3296743934647659,0
2052,0.04524022408532848,0.14271239787132362,0
2053,0.0022207256452148674,-0.00742975058652641,0
2054,-0.11845048559023336,-0.17871887564357203,0
2055,-0.08442207050748451,-0.007913038246106743,0
2056,-0.10391097092507007,-0.15685316923837442,0
2057,-0.17618431390198053,-0.1728897275726654,0
2058,0.00536195279084041,-0.0020873931438121496,0
2059,-0.11708249258862179,0.06774599586123553,0
2060,-0.03434206129289468,0.03817095076375943,0
2061,0.048908733152498954,0.0650569514067423,0
2062,0.06752913660914035,0.009221823703794964,0
2063,0.04149265719218723,0.019892974549984073,0
2064,0.013105302601862375,0.10668467497515446,0
2065,0.045159891197762536,0.1854554876503099,0
2066,-0.08341579845708047,-0.04347057880583241,0
2067,0.09239309792424216,0.0466375599615493,0
2068,-0.0053510440907499745,-0.1673385113960876,0
2069,0.029491581218131478,0.024303013599164206,0
2070,-0.020707181263752747,0.07367084601708099,0
2071,0.05263485068695835,-0.11026632830174099,0
2072,0.05695261042409126,-0.025320273919630303,0
2073,-0.029551860594855716,0.05289799838813549,0
2074,0.04100718566167125,0.07325003498005028,0
2075,-0.02657736872745641,-0.09016637672483367,0
2076,0.005516011791472074,-0.049046019156566284,0
2077,0.03504386697193949,0.05360452073459941,0
2078,-0.03976947756799038,0.06484153434428512,0
2079,-0.008638531678159332,-0.13822194332415838,0
2080,0.10002513501038804,-0.0018565975097756203,0
2081,-0.026717447728085757,-0.10824504048981684,0
2082,0.01870863849253812,-0.04693725214311754,0
2083,-0.07461512954862268,-0.05641909500865537,0
2084,-0.06702151680200336,0.03928493771801264,0
2085,0.02369794031312934,0.11007218065237796,0
2086,0.0007019775477647875,0.061235661906447705,0
2087,-0.028944409384047097,-0.09937318229613262,0
2088,-0.05024840247713284,0.006804676480637382,0
2089,0.04813126351364548,-0.03207891268434859,0
2090,0.030000499857149948,-0.09392551400031153,0
2091,-0.004864413466282078,0.017648620214189364,0
2092,0.04928568085875222,0.006321197171475341,0
2093,-0.06292686672750533,-0.09754136686632905,0
2094,-0.010524347028314689,-0.07658023739264554,0
2095,-0.04479493638933713,0.04439046034875165,0
2096,0.010885991947878653,0.04053333612192784,0
2097,-0.04800134374664144,-0.07437496494278845,0
2098,0.07579029300566023,-0.269391666461182,0
2099,0.0074651091747301185,-0.25236744057724325,0
2100,0.10389488454424714,0.06631871718236909,0
2101,-0.022730602823841855,0.05167661623126571,0
2102,-0.004963824556933443,0.10956851116938449,0
2103,0.015745939022079127,-0.10869638327059952,0
2104,0.07020836037821326,0.134493019251878,0
2105,0.011674327613998134,-0.021159355180616266,0
2106,-0.0753975986902515,-0.05225330954089864,0
2107,0.038073994844785464,-0.13224220611199855,0
2108,0.07083036605669343,0.10297618146842275,0
2109,0.013446881427102349,0.08506472198701023,0
2110,-0.001859363837348977,0.12609671814918355,0
2111,-0.09282113104719238,0.12252857269156665,0
2112,-0.05372062388218309,-0.020759016979278278,0
2113,0.08489670491997826,-0.051097513970659016,0
2114,-0.006014308523811381,0.13071430090537442,0
2115,-0.04350959741952741,-0.027004552350576052,0
2116,0.01330028856544806,-0.009236470887838332,0
2117,-0.006117120818414625,-0.11491072710313417,0
2118,0.03893651659434121,-0.0401972360608393,0
2119,0.017266382684968194,-0.021210999408435054,0
2120,0.0281653492913775,-0.09938501246842166,0
2121,0.0029871492354247168,-0.08588135091586667,0
2122,0.03731375482420436,0.19192372687830567,0
2123,-0.03193880981080639,-0.15570673762028378,0
2124,0.004498658974695189,0.19693790228962357,0
2125,-0.017783568848678884,0.046146771970983026,0
2126,0.095685378626096,0.08565208200519397,0
2127,0.30068894521972156,0.39222287811912804,0
2128,0.4707137248636404,0.2505561789918652,0
2129,0.6365172199156772,0.5708178271742509,0
2130,1.0851008582576889,1.0154825474239892,0
2131,1.5623831662258278,1.4829730800806789,0
2132,2.3043762330443776,2.299799419161727,0
2133,3.160193179558939,3.1004650833473963,0
2134,3.9387647743430194,3.8935864636406254,0
2135,4.809367134228338,4.695642796150429,0
2136,5.590982455947852,5.641545234666843,0
2137,6.320027642090725,6.108094051372616,0
2138,6.77722125151147,6.793110105389277,0
2139,6.978927761058184,6.8681780985912,0
2140,6.762435261047,6.87487140770462,0
2141,6.228017786044272,6.303121841328165,0
2142,5.244720825426449,5.411981454954696,0
2143,4.113166270108932,4.062342895172519,0
2144,2.728968479687241,2.60175144702044,0
2145,1.1949797238494564,1.1963396421754084,0
2146,-0.16167230364757645,-0.27767617901287456,0
2147,-1.4830745586059102,-1.4718846719061704,0
2148,-2.4642946395635086,-2.267018854140132,0
2149,-2.8981014230071502,-2.7703964136302632,0
2150,-2.9548548209178396,-2.981144432275943,0
2151,-2.736884853396179,-2.670842335422535,0
2152,-2.0932762094987414,-2.066801618859913,0
2153,-1.4709696308487388,-1.3285088895954498,0
2154,-0.5934376744685292,-0.6345466162696276,0
2155,0.3644490634113316,0.3872630783522013,0
2156,1.041744177031903,1.1933077649467387,0
2157,1.498888932988578,1.4963140347861095,0
2158,1.573987231190766,1.4850688574503068,0
2159,1.4311071018103327,1.4263392211019357,0
2160,1.2367084409215883,1.2065897552444582,0
2161,0.8044610320513668,0.9633962788309919,0
2162,0.23953070891880568,0.3929856961721587,0
2163,-0.16367884264353594,-0.2656078777579517,0
2164,-0.46917024469625007,-0.5484585774437667,0
2165,-0.7334809574966548,-0.7109108516039322,0
2166,-0.7654263697148094,-0.7800973338318481,0
2167,-0.6703778743315527,-0.6947754082272948,0
2168,-0.46496959831275525,-0.558747374493071,0
2169,-0.31561746853048894,-0.3205612325853444,0
2170,-0.048897242656355804,-0.08242047189275703,0
2171,0.05847071887406554,0.15642853511927157,0
2172,0.29508160108858433,0.1531906407525053,0
2173,0.40270219149287545,0.4376654982886393,0
2174,0.27474789132521216,0.30327713419391,0
2175,0.25993204726596986,0.23499404971990728,0
2176,0.1877141354559959,0.08059077857244473,0
2177,-0.010692124683941123,0.08601560305335412,0
2178,0.015106072136894088,0.05311574183193085,0
2179,-0.01499199852695337,-0.04475271364977194,0
2180,-0.13106373712864433,-0.04102055696168297,0
2181,-0.12543990263479052,-0.15205605350642631,0
2182,-0.05004630360407908,-0.17192474707215066,0
2183,-0.13343764136403052,-0.01587175895992842,0
2184,-0.010396826879963749,-0.0716118141331768,0
2185,0.021670594088706557,0.10850209798963267,0
2186,0.0917679648982326,0.0347809584138976,0
2187,-0.01585278758563074,0.1144607598626248,0
2188,0.06564711344535422,0.17909013990999179,0
2189,-0.0169150489235463,-0.04306438206130314,0
2190,0.0219269616075891,-0.022033051508915876,0
2191,0.03212486478223758,0.032083587480832274,0
2192,0.024691968534104415,-0.018108976401378984,0
2193,-0.008735269990618036,-0.005459189130171358,0
2194,0.039021236120765315,-0.04715133651339822,0
2195,0.08807617861118572,-0.07070170357859634,0
2196,-0.05284532381059355,-0.0015352224199226654,0
2197,-0.01778269465835483,-0.13729968164506323,0
2198,0.003121587727079559,-0.03752493764261926,0
2199,-0.025579500501202185,0.008816147277027593,0
2200,-0.023173288268247362,-0.022835847348236633,0
2201,0.018941672679756383,-0.0057608835574058425,0
2202,-0.00808385903340178,-0.017875870451636938,0
2203,0.012622200224785978,0.0923950231360554,0
2204,0.08407096448191605,0.05793281014953499,0
2205,-0.0720479422899853,0.13742971774500737,0
2206,-0.061967299463288966,-0.04382157256756261,0
2207,0.011416111858894335,0.10133726724205945,0
2208,0.0895760816620249,-0.0219585926055564,0
2209,-0.06865685394348488,0.16372975646916463,0
2210,-0.010927840135854532,-0.07010895500815234,0
2211,0.01254722400725871,0.11276458791317763,0
2212,0.003864178747520826,-0.07576067212240045,0
2213,-0.06877784556564427,-0.16425778052205242,0
2214,0.021441881715416757,-0.07736857866182442,0
2215,0.010766902848001437,0.10444707554600059,0
2216,-0.014789617152193079,-0.024855840720840364,0
2217,-0.10074880419210176,-0.1389374668921154,0
2218,-0.07220563893151759,-0.11783715133405456,0
2219,0.026231271440139536,-0.046439322504833715,0
2220,-0.018272015989429874,-0.04115149826445531,0
2221,0.033855745586771534,-0.10804775258304587,0
2222,0.003453031519141478,-0.09406542717355383,0
2223,0.026651959168373766,0.05059015558798168,0
2224,0.12289311093671577,0.06931057048438156,0
2225,0.01741480034439276,0.10156567107502842,0
2226,0.12846972221634834,0.04589137372385741,0
2227,-0.005942084022918521,0.025183066904391628,0
2228,-0.06870325090618212,-0.104126779966059,0
2229,-0.003310516097962188,-0.10813428901658245,0
2230,0.030325434798690962,-0.020079216402714702,0
2231,-0.028271356897834714,-0.022273383256122898,0
2232,0.01905726038544881,-0.05862931044939051,0
2233,0.0370962264113475,-0.046042021237197334,0
2234,0.005914511316351502,0.10944397891777223,0
2235,-0.028358120247684894,-0.09878518393361704,0
2236,-0.034300731832663876,-0.0746656231879288,0
2237,0.06890858359694398,-0.14340055531853327,0
2238,-0.05888558925066171,-0.17583434751807772,0
2239,0.09223635252980085,0.11358621955410703,0
2240,-0.018455086050732886,0.058644585687875554,0
2241,-0.0323805074693895,0.08253705148426332,0
2242,-0.053528676588124914,-0.0897112848827852,0
2243,0.053338880192096906,-0.1416036528269956,0
2244,-0.037670895195914975,-0.05162268747352862,0
2245,0.0224667445030193,-0.08625612320944138,0
2246,-0.06921820055344521,-0.01442576141640076,0
2247,0.030298612904611232,0.2811030473765551,0
2248,0.010279965526201522,-0.09954250066766114,0
2249,-0.0038657580370727654,-0.0022757597732966876,0
2250,0.023691071758676158,-0.020098648401389453,0
2251,0.0982677698171204,0.12684129535495087,0
2252,0.17946576910874645,0.26751373265666734,0
2253,0.3248343628018308,0.2988121004499903,0
2254,0.7051181432206685,0.6730722411278915,0
2255,0.9780749871047718,1.051645238796023,0
2256,1.5178545074633172,1.584239196283801,0
2257,2.1471331441498385,2.1604813101074036,0
2258,2.967544750066827,3.1352266399510413,0
2259,3.78408885326956,3.8977885461814212,0
2260,4.6444217853572765,4.715568498939433,0
2261,5.483968942553525,5.2860306814832585,0
2262,6.174781747596356,6.147470256601274,0
2263,6.773155494017604,6.893992444521096,0
2264,7.092360247808198,7.035303256668098,0
2265,6.808713300368328,6.733623676045185,0
2266,6.343538373685477,6.2733912759661115,0
2267,5.407750807202029,5.521764482884028,0
2268,4.206188343314916,4.273970520485936,0
2269,2.9111294486665797,2.8358414710065745,0
2270,1.3716253729024226,1.3827731297364376,0
2271,-0.06122101091550388,-0.14020510377071893,0
2272,-1.35116611421606,-1.419549482108364,0
2273,-2.251457940801416,-2.2921576594842454,0
2274,-2.8467774566587707,-2.98642462644878,0
2275,-3.0214481147701853,-2.8338546593100946,0
2276,-2.734015703666498,-2.734714623960544,0
2277,-2.228684955299229,-2.267365259847912,0
2278,-1.523206022367204,-1.564188984183077,0
2279,-0.6902164843987945,-0.7471190470410348,0
2280,0.18805151428205774,0.2943306105779973,0
2281,0.912438782866052,1.0162487207383577,0
2282,1.3524265748727422,1.3622923264559201,0
2283,1.6046757481584202,1.7067965176417352,0
2284,1.5206648483895389,1.3719968137791183,0
2285,1.2642825682109167,1.3671671186035377,0
2286,0.8330147432603767,0.769516158391316,0
2287,0.4722798617300935,0.3594476461006192,0
2288,-0.11196421831654531,-0.14349075820719567,0
2289,-0.5021485701199945,-0.42318657697253537,0
2290,-0.719919238867426,-0.6404476098057722,0
2291,-0.7345564548601675,-0.7063010604126432,0
2292,-0.6606055557718192,-0.569402126991999,0
2293,-0.5715968597684322,-0.3821864991800945,0
2294,-0.288674082269185,-0.18430963926511074,0
2295,-0.10249764735805543,-0.06670925271326056,0
2296,0.0956689141865554,0.04629241888697129,0
2297,0.20254104538001014,0.19485842343867427,0
2298,0.2900378089833671,0.3182545279279261,0
2299,0.3455193131102233,0.1975841896746572,0
2300,0.18323241482626074,0.17857205111295738,0
2301,0.2035243802288606,0.06829031764227873,0
2302,0.09721712925343304,0.0440173910647964,0
2303,-0.0069581484853674345,-0.009582991766514665,0
2304,-0.07545613369287116,-0.019489965957600455,0
2305,-0.1113019732958067,-0.00735325423186875,0
2306,0.024653935307819327,-0.14277093939953445,0
2307,-0.1338282525253272,-0.24350255885993344,0
2308,-0.11764871522008419,-0.19505403341570615,0
2309,-0.00935686670392872,-0.020495343268285917,0
2310,0.08877200118652033,0.06122192108188806,0
2311,0.024534601183446157,-0.10101903439444343,0
2312,-0.035752065722960066,0.030184098605308518,0
2313,0.012227559806247807,0.22181053205851425,0
2314,0.015555285869838136,-0.0071059298817827375,0
2315,0.013334189244432713,0.09650223433406975,0
2316,0.05865528869332898,0.01707310704071935,0
2317,-0.059399514294020836,-0.09669642435345031,0
2318,-0.042718232974790826,-0.09549815876552151,0
2319,0.11614153136260023,-0.05429215195068876,0
2320,-0.06129159061766999,0.043798208585473467,0
2321,-0.03298773102887076,0.013386085850089323,0
2322,0.050196372489083825,-0.012526185046276537,0
2323,-0.022530169600453596,-0.03974909279363689,0
2324,-0.022938675411384144,-0.07736143101398543,0
2325,-0.0053544076561672805,-0.034757798036089256,0
2326,0.028798597043843882,-0.020965393946815788,0
2327,-0.008402706437829529,-0.12465339414409625,0
2328,-0.01905256501531919,0.0654832122227941,0
2329,-0.01122969448765871,-0.07926739219945689,0
2330,0.05892746891036015,0.16209948840504315,0
2331,0.1388219684523485,-0.016166896563899396,0
2332,0.09069092574556352,-0.0024819241746426033,0
2333,0.0056783968528658,-0.06405698203708976,0
2334,0.03611398619358522,-0.10366483531776953,0
2335,0.014717994741993463,0.06782026060503163,0
2336,0.03605239378404038,0.09587025724653445,0
2337,0.017470462021793604,-0.10344624858070273,0
2338,0.048338357908502945,-0.04877159769840602,0
2339,0.06032013711424962,-0.1143940156147555,0
2340,0.029425148318046965,0.0698545855077298,0
2341,-0.053513282113652756,0.02669625720261263,0
2342,-0.027975099435319745,0.1275486083803948,0
2343,-0.019468067325711106,-0.07967497173952433,0
2344,0.02988559116839293,0.2640138910663292,0
2345,0.04199700623943113,0.13050776647304915,0
2346,-0.02058705228227752,0.09458489550168125,0
2347,0.008259261924727231,0.08382239086358663,0
2348,-0.05788191200009994,-0.11247490165276915,0
2349,-0.03705135973025094,-0.011488933860052434,0
2350,-0.10033421774859534,0.08556746417959439,0
2351,-0.06362414834734308,-0.11173228203982036,0
2352,0.012519203422968056,0.05277454759136984,0
2353,0.015056238938173589,0.07430291634876152,0
2354,-0.007832879907610089,-0.00766497290240191,0
2355,-0.158468131727928,-0.026013404766715698,0
2356,-0.012450247933034798,0.09334425069074741,0
2357,-0.04721190302571004,-0.1842975062784011,0
2358,-0.011508154050737546,-0.04078360045959872,0
2359,-0.02678860612148802,-0.03152867826187118,0
2360,0.002796347617180384,-0.09282267822582527,0
2361,0.02679361890482704,0.06433395375109245,0
2362,-0.0744105004613132,-0.021216450720534796,0
2363,-0.07459913265898617,0.14134412137060953,0
2364,0.022926631775743594,0.07862396516725309,0
2365,-0.027929021945187267,0.008298884868494248,0
2366,-0.03383128453581881,-0.03505801745362751,0
2367,0.07997817319624634,0.04077156644036165,0
2368,0.06515813477070687,-0.10562777344313087,0
2369,0.02234916935539553,0.19770662326963637,0
2370,0.02519105426832163,-0.06071284176978561,0
2371,0.00039025251703873496,-0.1047827758103216,0
2372,0.02604718306093243,-0.07085748575672322,0
2373,0.04666096911004546,-0.21526671885499768,0
2374,-0.014448870270710481,-0.0355808268789235,0
2375,0.10368473835760611,0.02617555227737439,0
2376,0.07693715047208755,0.09918372099229449,0
2377,0.21125655196900237,0.14403001480870561,0
2378,0.4027690403979124,0.2305259819619579,0
2379,0.6084891631656508,0.7081666624376606,0
2380,0.9839615209501871,0.8661718096816975,0
2381,1.4658562205839512,1.4903439963499945,0
2382,2.105008668143038,2.125414089971147,0
2383,2.8076163848598634,3.0392584779412153,0
2384,3.6928485390808015,3.7266717363432162,0
2385,4.59539839362323,4.403457498963436,0
2386,5.436086921866816,5.313924289679067,0
2387,6.14552602470321,6.104134690736466,0
2388,6.689785242986999,6.908895982993789,0
2389,7.0441516494732435,6.975089261286091,0
2390,6.841976561317121,6.920702657317417,0
2391,6.389895229773181,6.406695128122807,0
2392,5.574293761648715,5.338289479262934,0
2393,4.414734689681236,4.500693248994409,0
2394,3.028068647802041,3.2439912213006075,0
2395,1.5441317907145522,1.4595907322710693,0
2396,0.16373542533379365,-0.04461344992409014,0
2397,-1.1864045478110552,-1.1970010774406825,0
2398,-2.155867463606421,-2.179152228401196,0
2399,-2.765886709542944,-2.832874244348709,0
2400,-2.973859002072084,-2.988351216686146,0
2401,-2.738018143588854,-2.812306065404465,0
2402,-2.3209565603880393,-2.2228153480692883,0
2403,-1.5697136247307344,-1.6715009847392823,0
2404,-0.7874940365531121,-0.6011016222959843,0
2405,0.1864566873638521,0.17998302231168173,0
2406,0.9592783612694677,0.8413215446617577,0
2407,1.4183500718763276,1.178547549984855,0
2408,1.6416578201725716,1.5132386553631656,0
2409,1.5729370967837428,1.496559812885072,0
2410,1.2149254294632135,1.3304133182058053,0
2411,0.8976030483075935,0.9126356494337322,0
2412,0.3171123183717311,0.552938945321237,0
2413,-0.06604589664460417,-0.11496311832289272,0
2414,-0.4138471834825828,-0.22309148696036368,0
2415,-0.6466640519302169,-0.6027385659078482,0
2416,-0.8113439413019403,-0.8298466228777813,0
2417,-0.6674621191930045,-0.694837022112502,0
2418,-0.5356673862827465,-0.6497851932005674,0
2419,-0.45676679307086393,-0.22719891569327366,0
2420,-0.15511705248442462,-0.21927822731567484,0
2421,-0.007144912531810155,0.06201237308337488,0
2422,0.20970164772641545,0.25270046872386237,0
2423,0.29999733101050324,0.3874654739915929,0
2424,0.3290651404809029,0.36873224271310817,0
2425,0.21074452569404822,0.056564223444995315,0
2426,0.25314937283221156,0.40071108027169355,0
2427,0.05287138121686545,0.12182001875534598,0
2428,-0.005662573427506655,0.03757819320322852,0
2429,-0.010314522839683649,-0.11292468821520259,0
2430,-0.10642007441737543,-0.1083187716599538,0
2431,-0.05533247546825605,-0.0827882691210865,0
2432,-0.18300968654362104,0.007450231446482436,0
2433,-0.03688751837275731,-0.12716480338501457,0
2434,-0.07628710069103573,0.021504756784586535,0
2435,-0.018935835698485573,0.023610005369865024,0
2436,0.016188481181879853,0.010871869800196735,0
2437,0.07016527281946781,0.01691105214238851,0
2438,0.0835424257575405,0.13849959180895133,0
2439,0.010363888424334153,0.08351622855662971,0
2440,0.038114375572238485,-0.046963798029901645,0
2441,0.035268689253715985,-0.09689799744053537,0
2442,0.014662162231057553,-0.024337352820357552,0
2443,0.00019474772111571347,-0.15927895727481065,0
2444,-0.09136498523395363,0.10774137784684043,0
2445,-0.04036124827861535,-0.04712571720800854,0
2446,0.08788501371911847,-0.08890534563076041,0
2447,-0.050560766116443674,-0.11799301099154748,0
2448,0.04067155502896544,-0.16005262828285113,0
2449,-0.014271916856742204,0.010224799621728809,0
2450,-0.05931362855734688,-0.031155701019172817,0
2451,0.006423410535154064,0.04879722844907797,0
2452,-0.021042175066419547,-0.10812129892938782,0
2453,-0.14383253081558078,0.05639191795286465,0
2454,0.07794539471710807,-0.01033308775493308,0
2455,0.025240808915017256,0.03976641321478226,0
2456,0.04922163157932898,-0.0005370746350521575,0
2457,-0.00945977132865545,0.01706368951027743,0
2458,0.07902331272466853,-0.15976472361894542,0
2459,0.013505547758766783,0.20307255115545442,0
2460,0.05497481488683578,-0.14328378465701705,0
2461,-0.059573063550180334,-0.1768043745943927,0
2462,-0.08708759884603612,-0.02313878783134943,0
2463,-0.10809534475239532,0.14106638496659246,0
2464,0.02247667418082085,-0.07036855700431019,0
2465,0.09871630169758779,-0.00010320327275077685,0
2466,0.016569043414359993,-0.011559403015824305,0
2467,0.04723697603774933,0.03842327946675091,0
2468,-0.09300888998049174,0.07956705079038856,0
2469,-0.03534239555224289,0.01798447116097134,0
2470,0.03100177953988001,-0.02686664473399114,0
2471,0.0017236737550286258,0.0411248087173987,0
2472,0.07831964502966623,0.01297166575851473,0
2473,0.060648364499185745,-0.02453972724424406,0
2474,-0.03578545959811296,-0.20279866325852203,0
2475,-0.07748776379364501,0.24409670741160375,0
2476,-0.03364292934962224,-0.04531243514624598,0
2477,0.017891290537884453,-0.19852467913142818,0
2478,0.012735420228044983,-0.04570399151635136,0
2479,-0.0030437413294863718,0.1422416027742976,0
2480,-0.04890054202808411,0.09430721314005903,0
2481,-0.046532596948176776,-0.11417982952634578,0
2482,-0.007242568224201449,0.06494189494174055,0
2483,0.0508342903321361,0.05072428435188586,0
2484,-0.005105007772511248,0.13909590169973016,0
2485,-0.09978510058324902,0.051649896068750464,0
2486,-0.007854226150634157,-0.05562601270287399,0
2487,0.109761065944447,-0.04901590073024307,0
2488,0.001604537777245633,0.08778566894418831,0
2489,-0.08290808314879547,-0.1449702611910468,0
2490,-0.04193872276711388,0.1311707844192974,0
2491,0.00761171567866999,-0.18298509269213684,0
2492,0.015947193211596038,-0.2090130922909384,0
2493,0.058416521627291794,0.12569500628618815,0
2494,-0.008160164391700576,-0.06723841005814514,0
2495,-0.06842546014369509,-0.12865788212101242,0
2496,0.11974138672304321,-0.06107599193450322,0
2497,-0.0875879377197011,-0.06995881413336275,0
2498,0.04949093393964474,0.08711531736388121,0
2499,0.11287474863772685,-0.013324740888985836,0
2500,0.12871666777801763,-0.0019254744893547268,0
2501,0.016766240724226104,0.08135931382645625,0
2502,0.18054924660841035,-0.061488355418968244,0
2503,0.39715120943155274,0.3319958114504324,0
2504,0.5932132062187315,0.7271111150626292,0
2505,0.9098250171915376,0.9391907537888046,0
2506,1.3679368561470815,1.492755964502253,0
2507,2.045543734624215,1.9136468068146733,0
2508,2.806099208579015,2.768170123945374,0
2509,3.6611270909997833,3.532858573512297,0
2510,4.4151887086292145,4.526955784440107,0
2511,5.299249762208102,5.379217973678755,0
2512,6.134415489929049,6.21856543695829,0
2513,6.5822371598654,6.641273132446111,0
2514,6.907889443908892,6.898080370059199,0
2515,6.874582147303103,7.038814811770415,0
2516,6.48955023587849,6.332648409452382,0
2517,5.657062896232152,5.730818356878519,0
2518,4.565253642692689,4.5261962688393265,0
2519,3.25544361611058,3.3437236539612156,0
2520,1.8164237731344772,1.716185218889738,0
2521,0.41532529471063095,0.3664175182771471,0
2522,-1.040981716544951,-0.8961703343913914,0
2523,-2.100263471866164,-2.107546033072348,0
2524,-2.748905036307707,-2.6256712408672507,0
2525,-2.937300163985555,-2.924871307469955,0
2526,-2.846339845926979,-3.001494158631498,0
2527,-2.4885703056726802,-2.3163293015096134,0
2528,-1.6434283760590715,-1.6844031989013963,0
2529,-0.8552149689873442,-0.8677303135299547,0
2530,0.007171603671000157,0.1244255747751426,0
2531,0.8457166178484659,0.8172454214098661,0
2532,1.3013980867442339,1.3418157008024518,0
2533,1.5730304805753792,1.5747392191147616,0
2534,1.53304115503704,1.664932576553325,0
2535,1.3065334463644285,1.4166327499679665,0
2536,0.9093549695045586,1.0817045788938469,0
2537,0.3907821785385872,0.5098571519332218,0
2538,0.03674622186957601,-0.17152885995345588,0
2539,-0.36854420119910236,-0.5059601878665181,0
2540,-0.6306850897685812,-0.6756896399308304,0
2541,-0.8420641137238435,-0.7840510734065657,0
2542,-0.7015340338781674,-0.7435446921867024,0
2543,-0.6030255854620139,-0.6708726272703633,0
2544,-0.4477651804299565,-0.3258489221505305,0
2545,-0.22067754214018234,0.009818728248852271,0
2546,-0.07394266359916407,0.054298271219901606,0
2547,0.244075011254278,0.1904624306430882,0
2548,0.36736039641719287,0.2232760759093954,0
2549,0.34410020755520776,0.2917059405418176,0
2550,0.2700420264211407,0.06408996151417232,0
2551,0.2431560632748938,0.14040280829182977,0
2552,0.15146774075325703,0.007622128435722408,0
2553,-0.04554391124552202,0.044505633929852004,0
2554,-0.14011245764573563,-0.13223090791072678,0
2555,-0.0930840629282269,-0.32209776591569483,0
2556,-0.10432456911027824,-0.22532765206719635,0
2557,-0.10275114972984824,0.11122180707167144,0
2558,-0.12764205286641905,-0.07035467365741055,0
2559,-0.02770322013776567,-0.014868094934683135,0
2560,-0.07678704166507624,-0.20406147970576421,0
2561,-0.02380431240844154,-0.001742456944029266,0
2562,0.004957410362579746,-0.02793909969703726,0
