timestamp,value-0,value-1,is_anomaly
0,0.43735203562135516,0.2780467352235219,0
1,0.39673102597665827,0.393826316573508,0
2,0.7145070944064393,0.44766151329716075,0
3,1.1358481981839228,1.045618977188527,0
4,1.6760903669139176,1.717579865970504,0
5,2.4199006764745516,2.6767196911960336,0
6,3.37009442479052,3.4114343312501347,0
7,4.123498928762147,4.28307030287131,0
8,4.903535941668465,5.142765745019738,0
9,5.753425301397908,5.932690213491883,0
10,6.417889091483188,6.590450673009795,0
11,6.831266733481305,6.900105789070066,0
12,7.054106162769582,6.985051199655179,0
13,6.76712043949648,6.72829894307617,0
14,6.067766405929563,6.043435553488145,0
15,4.976003994438427,4.834262312905625,0
16,3.8078854530346002,3.648760784410824,0
17,2.3479581256717506,2.4290152493945403,0
18,0.912547770209887,0.9652011845846368,0
19,-0.4241588081583222,-0.5408338921356578,0
20,-1.793669202955902,-1.9749993755582678,0
21,-2.6233075015249137,-2.4624645785631794,0
22,-3.0752725046462683,-3.061670266940741,0
23,-2.8438175092438196,-3.083580673360725,0
24,-2.664642170666703,-2.703447792066277,0
25,-1.9444442917214952,-2.060601129232837,0
26,-1.0956605261440193,-1.1554774110874937,0
27,-0.38562140429675673,-0.13463318310888645,0
28,0.46532246434646585,0.6085581722117747,0
29,1.1587955819200286,1.112104883931085,0
30,1.5071827490131602,1.5554870295086134,0
31,1.57276465955855,1.6927983917540643,0
32,1.4706917894103093,1.4489167582775822,0
33,1.1160954252870112,1.2142636768239443,0
34,0.6275208922625983,0.818169063964104,0
35,0.16641243343464301,0.23884763837473674,0
36,-0.33850768684146176,-0.12414173677420612,0
37,-0.6268966913364794,-0.7915474100516139,0
38,-0.7536756334099496,-0.7358892903502352,0
39,-0.7182690685969736,-0.7062496038952993,0
40,-0.6432191159385257,-0.6668246903972255,0
41,-0.49141566607003906,-0.6158014574983132,0
42,-0.21149656445165782,-0.2988609357221081,0
43,-0.0951771733231096,0.05434773990694573,0
44,0.15157763434474045,0.15088528964308387,0
45,0.2440077399160287,0.32143169078553907,0
46,0.34520552388531944,0.2655140747008198,0
47,0.3518732278836876,0.4561831278667178,0
48,0.2637765039514501,0.30061895350029794,0
49,0.1717764378244465,0.17981142407444917,0
50,0.06160917413182451,-0.17052389440697854,0
51,-0.09836796409254295,-0.06800163109425456,0
52,-0.07671526407437318,-0.07259654481250606,0
53,-0.12908466434170748,-0.22972907612684124,0
54,-0.16917827352205728,-0.2757672471808511,0
55,-0.052884924650930976,-0.03139384610758799,0
56,-0.05812675055091711,-0.06419048563522158,0
57,-0.00910317674854122,0.0020764910979207997,0
58,-0.019772485600805176,0.04471894354592118,0
59,0.034412420370245896,-0.050426322945165455,0
60,0.1048546922944622,0.045536779473469596,0
61,-0.011629025046973558,-0.0505252736290371,0
62,0.09534991178394409,0.23360728901935068,0
63,0.03134910211389194,-0.09956220000729524,0
64,-0.005783659986356984,-0.009662476612375324,0
65,0.06866243932087013,-0.04181765300411515,0
66,-0.00020138618894312635,-0.032847734482763444,0
67,-0.050961854651125744,-0.18939244428719534,0
68,0.06719330635127811,-0.051587393475202734,0
69,0.020489892359758528,-0.11234208214334458,0
70,-0.13922871298009276,-0.06608969434687614,0
71,0.03867226279586868,0.1466078505998906,0
72,-0.014746996792828326,0.011556172504463657,0
73,-0.012156013670354262,0.030913703342162327,0
74,0.011700947813177001,0.12398027978812738,0
75,0.025259894458242664,-0.04068147387726032,0
76,-0.10858312572360271,-0.06419688829387601,0
77,-0.055032055169272266,-0.11520108304673099,0
78,-0.006678718681941887,-0.063645609836323,0
79,0.05627823700094411,-0.07095097118816023,0
80,-0.04824243234378024,0.10675060732987122,0
81,-0.08091776815773676,0.08683678208081066,0
82,0.0157478051584492,0.05892223143558888,0
83,-0.05211864121197459,0.10713180967163193,0
84,-0.029901421308444805,0.004099683227197657,0
85,-0.019395845937205388,0.07338216335153329,0
86,-0.013499752508243064,0.06416677120493985,0
87,-0.0741003270392891,-0.11382988401013312,0
88,-0.05792739938389015,-0.029131173678663656,0
89,0.13445099569424857,-0.01883424206272737,0
90,0.025919239092814413,0.07204563060954766,0
91,0.013972998586617857,-0.01299067484114996,0
92,0.007613792511992176,-0.08671340039139484,0
93,0.059324289194124025,0.09602669899483103,0
94,-0.034191936359057665,0.0007735152758507148,0
95,0.046284310627175446,0.05420015430214567,0
96,-0.07772849394496571,0.039818474319262116,0
97,0.05989257673558905,-0.062098673615065034,0
98,0.028739860627583432,-0.1420234170115102,0
99,-0.049121009881526116,-0.05945499465410456,0
100,0.03769267197209033,-0.02079763794525726,0
101,0.08803118682175377,0.007026222709801693,0
102,0.05918843604109179,-0.04487409908341678,0
103,-0.010288378874249647,0.025897090688976117,0
104,-0.05169634174480362,-0.20434069870334434,0
105,-0.07372407842897558,-0.004645452251909867,0
106,-0.04477342140641235,-0.041163467059424634,0
107,0.04329657350642069,0.052693533742691874,0
108,0.02899611383652634,0.030606758087454576,0
109,0.062083086698878465,-0.03139394749074668,0
110,0.009037710580201015,0.16284627902009816,0
111,-0.053275327115609485,-0.03564852327390388,0
112,0.0072967636348646924,0.1662039597804136,0
113,0.02446152423360419,0.08619577384488473,0
114,0.04747302668479237,-0.10074223492038428,0
115,-0.028672121158923817,0.13186276625910065,0
116,0.1356013121690737,0.008827668953576496,0
117,-0.1042228416692401,-0.09974086020682874,0
118,-0.02577889598832816,-0.078638166289117,0
119,-0.051060646096533185,0.008334241256773798,0
120,-0.07473495729497497,-0.16920670577023553,0
121,-0.01031417513284962,0.05590370329406397,0
122,0.06949504377043307,0.12917701846673407,0
123,0.15619651472890006,-0.09407681923481584,0
124,0.14210281484954285,0.14739698417262395,0
125,0.2707679734432482,0.1711783698096849,0
126,0.40831755701361744,0.4004662093006584,0
127,0.7581394419497874,0.6681511518606006,0
128,1.1709867224155508,1.1768132851018713,0
129,1.7531733893685444,1.5764153078012715,0
130,2.465339617780315,2.365475346261516,0
131,3.171715146061409,3.0664537777712697,0
132,4.047877066529909,4.010035345323168,0
133,4.925801719055902,4.976434536533992,0
134,5.5522065170217285,5.68803020726556,0
135,6.372885469708354,6.396798120344573,0
136,6.794587670724484,6.87487677183765,0
137,7.0191846790947645,6.99989714476664,0
138,6.8090255132222035,6.689843876351946,0
139,6.079139051943569,6.103726108161105,0
140,5.18272772135135,5.059739669354136,0
141,3.929716330996421,4.018655767197444,0
142,2.592522502230073,2.800648657382298,0
143,1.0281893640577007,1.0656858851112763,0
144,-0.3507923169741215,-0.4052535276812893,0
145,-1.6672789125079714,-1.4459174050407155,0
146,-2.501893005559318,-2.480683258698307,0
147,-2.9406013911466213,-2.9818800146489384,0
148,-3.033070627301733,-2.998452255918137,0
149,-2.743232892773711,-2.5215899502775123,0
150,-2.14206791576554,-2.2823689427234934,0
151,-1.271295483236042,-1.0221038905166868,0
152,-0.4115927038063766,-0.3141322878425329,0
153,0.4699442218246446,0.25141870108926123,0
154,1.0524596991717732,1.2382233332249126,0
155,1.4234323769254025,1.571184192936323,0
156,1.5449511529200741,1.7371502145421478,0
157,1.4366409456032383,1.589368770987706,0
158,1.140695610966364,1.0283190829159399,0
159,0.641829465708482,0.6088807508722993,0
160,0.25712484399602287,0.1855039199910813,0
161,-0.1777429542267913,-0.1396224004948707,0
162,-0.5567358135468007,-0.5811806862878424,0
163,-0.7906064674020004,-0.7270901168661943,0
164,-0.7897627140626902,-0.712059917545807,0
165,-0.8066487084062272,-0.5990693061542531,0
166,-0.4493319556435516,-0.4812077233042536,0
167,-0.2623061142023848,-0.18060494034150024,0
168,-0.022883213660922233,-0.029107616617925238,0
169,0.12108720996939264,0.2538137083154041,0
170,0.27358139589189134,0.39377521637032853,0
171,0.3510524770507438,0.08426445849151959,0
172,0.35203375725176517,0.4281889504849131,0
173,0.32589159680532254,0.30896738673964796,0
174,0.15731244267899358,0.19606270572103693,0
175,0.13917199199053437,0.027351352826311584,0
176,-0.07563466862969542,-0.0048599647964620435,0
177,-0.09707835814695319,-0.1275863710739808,0
178,-0.08637359940514668,0.032242394620903475,0
179,-0.14728782866125212,-0.011562356138438715,0
180,-0.11204555463505819,-0.15834229005061096,0
181,-0.10492576589398282,-0.015128633778148742,0
182,-0.01539217443279835,0.08014188549173575,0
183,0.1704798771016035,-0.03607137707139396,0
184,0.02083427483647499,0.03856166398580624,0
185,-0.011841644452545874,0.09726467081824283,0
186,0.01914607365538395,0.08664582599125531,0
187,0.0010066414282779365,0.026493254130974395,0
188,-0.0005909369831779213,0.09265610178216069,0
189,0.029405112916467427,-0.05090379429740345,0
190,-0.007761211039539048,-0.002993527565899214,0
191,-0.0401896073841533,-0.06654551343686195,0
192,0.0267107943173424,-0.0016128867250369107,0
193,0.00406318522232687,-0.12811598315727307,0
194,0.028283415445646595,0.029427398563843382,0
195,-0.009618852274549682,-0.02472079120881046,0
196,0.055411231174159,-0.03515535900691263,0
197,0.06482710723589198,0.13054917312602213,0
198,-0.023364072849752685,-0.16373275574070717,0
199,-0.037264468301958675,0.15094097910454718,0
200,-0.03570362821644305,0.2637817534848649,0
201,0.13424651016864006,0.1943491774547067,0
202,-0.03681867406515841,0.04182887983840377,0
203,-0.05635944559993512,0.11105621152409581,0
204,-0.05620501819972515,0.013759611518215835,0
205,0.05545937457949692,-0.03401040066886077,0
206,-0.0299540121712809,0.09006671523542584,0
207,0.015332964385743065,-0.03780280426898809,0
208,0.006124886287222634,-0.15966418835985532,0
209,0.008174425707214694,0.20648706721497967,0
210,0.005295154931263414,0.0074045340841834735,0
211,0.09255073658346269,-0.1063139392825468,0
212,-0.03367370264272536,-0.15154981786294972,0
213,0.009105166806630647,0.08408750783526114,0
214,-0.08229434845219538,0.017182840540895375,0
215,0.04527807324340696,-0.06268040891918465,0
216,-0.06144351318948244,0.14222708708787313,0
217,-0.024930927072368422,0.0732204498251788,0
218,-0.009152589506544311,0.18227659327296897,0
219,-0.0067892447429502515,0.030909814592906835,0
220,-0.07370991358956855,-0.15486851978299215,0
221,-0.0009943318444965547,0.0190462638520768,0
222,-0.016358781063065927,-0.09471429203761206,0
223,0.09014321148508861,-0.07022615254875862,0
224,-0.08172811385065429,0.03762420975090013,0
225,0.007463887525963119,-0.028913247651953907,0
226,-0.022836974372294497,0.0476939500151218,0
227,-0.023173920296710164,0.04102058502758203,0
228,-0.02165468867585468,0.037295489281109116,0
229,-0.003570794772120494,-0.10074468970681517,0
230,-0.02224756508833069,-0.03286745748754124,0
231,0.007184824379868073,-0.057400452710123756,0
232,-0.10292186979997967,-0.009830575641121535,0
233,-0.11546624697320251,0.11150239761225657,0
234,-0.03233125474955392,0.005532230939686156,0
235,0.020512566838081153,0.1256622197417476,0
236,0.06211383138431262,-0.003352532810904838,0
237,-0.02060186469095054,-0.04395673655622044,0
238,-0.02962792999187343,0.11389084271735715,0
239,-0.008496456648301258,0.044067752027412914,0
240,-0.03167502519423108,0.08656908103292851,0
241,-0.041010547876446424,0.16332089897926697,0
242,0.014886112968399576,0.0026870707364290846,0
243,0.02473875661887349,-0.04797094295794843,0
244,-0.05994763887324698,0.06622250823019613,0
245,0.053719053683503076,0.08069558971173547,0
246,-0.04871038533897905,0.10871573971922917,0
247,0.006999063436008894,-0.03153069078578548,0
248,0.037036247031530155,-0.04688019587675397,0
249,0.12449697399368395,0.2750241934144986,0
250,0.16172388158129475,0.3828322192965318,0
251,0.40078774908524123,0.3591452406540018,0
252,0.5848546317153523,0.6130953566348785,0
253,0.9955510491391253,1.111181727300518,0
254,1.593705646899911,1.5738235767439415,0
255,2.2663671789317346,2.2774360517323387,0
256,3.0336466764162,3.003265907473708,0
257,3.873025859536957,3.987331297780907,0
258,4.7695451755841844,4.780725483648957,0
259,5.612658894882618,5.619251005140779,0
260,6.291255787422094,6.348207636723691,0
261,6.758761482895275,6.807097803064647,0
262,6.9295316995993606,6.866521168577252,0
263,6.828220067728491,6.815062820161906,0
264,6.191713174068182,6.261789836008338,0
265,5.338858795306185,5.300321123546762,0
266,4.108845228888111,3.9928100869408847,0
267,2.6224613036477264,2.7050381309656633,0
268,1.28152757904468,1.3067012155192215,0
269,-0.15562676929819486,-0.10185443279619003,0
270,-1.4678271523967175,-1.3625597299762744,0
271,-2.489835233308027,-2.2306221415253504,0
272,-2.8117484669663413,-3.054614171064369,0
273,-2.9625032632109574,-3.065617033287096,0
274,-2.8180092261742558,-2.7139202480142552,0
275,-2.130737391600335,-2.2335205374916938,0
276,-1.3943711634755154,-1.3721991837407979,0
277,-0.5989114773903349,-0.6365059625915837,0
278,0.34842706676524343,0.3144836492364419,0
279,0.9936841265836687,1.0993294412157644,0
280,1.4608035942270423,1.625172629973021,0
281,1.5028142382596414,1.557758044486737,0
282,1.4594573842969532,1.3243738196341397,0
283,1.2462740152974565,1.1412057395212456,0
284,0.8199958146469468,0.6714275561788859,0
285,0.30076988010867567,0.33654549183094146,0
286,-0.19972058387564828,-0.10504335161079642,0
287,-0.5239945385563034,-0.5567074001690522,0
288,-0.868500808342701,-0.4904568035919882,0
289,-0.8225411527594254,-0.7835109780830695,0
290,-0.7051947566396114,-0.6981083615701129,0
291,-0.5361548156169834,-0.4893686925415507,0
292,-0.31600632043852506,-0.26210837216675476,0
293,-0.0048638078446576055,0.028785912365486097,0
294,0.11222894586977322,0.12916505889950336,0
295,0.2617332515920518,0.32470969244191067,0
296,0.3778220722805931,0.42681095940676894,0
297,0.38909550865782366,0.16498665419676187,0
298,0.27484978827458795,0.26824982699342426,0
299,0.13368570565329346,0.13835784899507192,0
300,-0.0013998453957135976,0.04348189794936215,0
301,0.02776743073534309,-0.04376179927990735,0
302,-0.026473539108604692,0.01715787074009767,0
303,-0.09741133002501226,-0.2267277511808845,0
304,-0.05349980248639058,-0.09632010063598467,0
305,-0.1928172768068593,-0.1570150360445497,0
306,-0.08823103951959073,-0.14285415026832032,0
307,-0.09003431478631363,-0.14911739250619704,0
308,0.017967366936172048,0.03935314419698902,0
309,0.0037478821550596154,0.023535003217666314,0
310,0.10698808704865342,0.02738884563577476,0
311,0.0981671629241218,-0.08734165888172991,0
312,0.011268708489251447,0.11799129339829609,0
313,0.054712023585757996,0.19862794088180538,0
314,0.12713760040013092,0.03162157749857351,0
315,0.030970603279608093,-0.0071084417873331284,0
316,-0.012130581145078674,-0.0333305868954366,0
317,0.00962632850662808,-0.11234423578516359,0
318,-0.017854507767860045,-0.05919144445981304,0
319,-0.09934980511033024,-0.005623697042709578,0
320,-0.04826686737790342,-0.08377490970420726,0
321,-0.11211090394797568,0.03129048208488169,0
322,-0.0019152037378638589,0.0493307069063166,0
323,-0.0164657396034809,0.04857099621084705,0
324,0.0017538853000403287,-0.09167724121199528,0
325,0.027240107272687133,0.10839483350267841,0
326,-0.01543398632842852,0.02190948419996703,0
327,0.05054081613928734,0.10682475101182627,0
328,-0.002818030202283447,0.045980215497600674,0
329,0.01626536338106969,0.10814986901642215,0
330,-0.00965428111394125,0.16661920816657777,0
331,0.04377957224982511,0.0031283920079200156,0
332,-0.00128196550047269,-0.027419706998853866,0
333,0.04727617706060545,-0.13620670394336964,0
334,-0.03726916969093273,0.011190543130902222,0
335,-0.03644193358326714,-0.11372092421566089,0
336,-0.029097842122859926,-0.05642545268457085,0
337,-0.037019643783171075,-0.04875733222841406,0
338,-0.0010316670589029294,-0.06322628793044616,0
339,-0.06186505397430843,0.15976826739778477,0
340,0.05206681720614037,0.17567727845190495,0
341,0.010302680051954127,-0.23838182936907645,0
342,-0.020370081515227966,0.1308427974374941,0
343,-0.005770882513751403,-0.00889825724610955,0
344,0.04259177436632636,0.03017890614039061,0
345,0.01994203978260158,0.038450100273827566,0
346,-0.0777042436576328,0.1599176944129332,0
347,0.016604923004058223,0.11200837249195847,0
348,0.00868966662900051,0.005964617205397361,0
349,0.024994732109103034,-0.0048884062601070736,0
350,0.029429243751699273,-0.12910138918138953,0
351,-0.021933569291980464,0.13773144467813067,0
352,0.037667831795508,-0.21714733607522316,0
353,0.012377714830433201,0.03160617633990153,0
354,-0.03380892608282149,-0.022389661888459977,0
355,0.12820933230079865,0.019451071824301364,0
356,-0.04962562916200323,0.10703896025480804,0
357,0.02759343274210308,0.07432269585042674,0
358,-0.023919273352195652,-0.09014464241332355,0
359,-0.000988364667202355,0.17913950404690485,0
360,0.01587515421944315,-0.181549825324655,0
361,0.06332193407448689,0.04638476254300643,0
362,-0.04902927904776024,-0.001296947898846597,0
363,0.07482320000820736,-0.08944349767220158,0
364,0.00933502626660403,-0.12393543416592437,0
365,-0.03491279633019442,0.1470657766303297,0
366,0.04001591937631371,0.22926117587942127,0
367,0.06499175126548207,-0.0024261781671513225,0
368,-0.020068413975423107,-0.03661762836064449,0
369,-0.012659520743501242,-0.010303166724319706,0
370,0.04412353112539381,0.009048801621893152,0
371,-0.028680887058632674,0.0454020593460815,0
372,0.044975513622097285,0.19897974185416467,0
373,0.013292695908309369,0.22375974964952386,0
374,0.07084736875631326,0.1620640655299047,0
375,0.1716904502058214,0.18973455166425116,0
376,0.3495123827274957,0.285504848289369,0
377,0.7115064003655802,0.7394878392004023,0
378,1.020797523331533,0.9963042518047969,0
379,1.5089713461787022,1.5294417646695002,0
380,2.194365890064494,2.2089536216415517,0
381,2.9165418602525377,3.0219464739902775,0
382,3.815870232903019,3.89504915147318,0
383,4.709312637814533,4.692776493451394,0
384,5.41133186262484,5.453037305989694,0
385,6.228857883402962,6.2264162701893095,0
386,6.798114767377599,6.768983432246321,0
387,6.958166679719774,7.045297441274073,0
388,6.7862793348383335,6.752179390644761,0
389,6.288788410849888,6.307069318958637,0
390,5.473881105334278,5.38788797249383,0
391,4.126134342869634,4.257472599413386,0
392,2.92516125015261,2.9652558252129517,0
393,1.4454106562225142,1.4534700643872256,0
394,-0.06286572789146189,0.054929273337584475,0
395,-1.3120838343850851,-1.4590789456796125,0
396,-2.241031217883468,-2.348308941357979,0
397,-2.826848481240175,-2.8469388925843093,0
398,-3.0995000099159076,-3.0793034671343142,0
399,-2.845604943633961,-2.804525338604515,0
400,-2.177329107916797,-2.167733206917787,0
401,-1.4436267473481952,-1.4441728359788593,0
402,-0.6989929970089028,-0.6587781581258311,0
403,0.26996001549627757,0.3847725374327587,0
404,0.919746413023049,0.9028484744299868,0
405,1.421515894414953,1.4583772546876816,0
406,1.5758161093639127,1.4317215277877167,0
407,1.5455058824952561,1.521334540842969,0
408,1.2057816516738935,1.2098903387142173,0
409,0.8125880889059418,0.9146554145499918,0
410,0.28470181674759587,0.3434497142386577,0
411,-0.07486339780751902,-0.13344011168691824,0
412,-0.43119081003067655,-0.38189256951705075,0
413,-0.6981407889668302,-0.4867584487242864,0
414,-0.7991713702434323,-0.8492120028812945,0
415,-0.7247697967846632,-0.9292955579173657,0
416,-0.5716150387114511,-0.4491072181736786,0
417,-0.27869846886696753,-0.28055645144759084,0
418,-0.039645297215990666,-0.024793969359794804,0
419,0.08794741169180231,0.05556492013074116,0
420,0.16154430547127235,0.2661508051759252,0
421,0.45381016587658407,0.2493731585949276,0
422,0.31473272751884795,0.2686956586794298,0
423,0.21960821269550576,0.18757271994518093,0
424,0.1490619359173376,0.20158921989805714,0
425,0.08047312448509823,0.13592490441285643,0
426,0.09587158484900894,-0.11756508612227552,0
427,0.0350322782818004,0.014628754699269886,0
428,-0.04824526245202122,-0.23136476330136363,0
429,-0.027363133228729006,-0.08180426730107011,0
430,-0.06190209349899859,0.04459781022965216,0
431,-0.01711465019802432,-0.15974879104313178,0
432,-0.13398001223090833,-0.053954238068070565,0
433,0.018772633007459058,-0.0375638823735913,0
434,-0.0348335440811942,-0.07821135049289013,0
435,-0.041020171663756724,-0.044969130238995306,0
436,0.014182002096510733,0.0984180079177143,0
437,0.04572458658386112,-0.06819926280890458,0
438,0.0741672202148366,-0.12211611011796084,0
439,0.01628787310015141,0.11166019451722918,0
440,0.04781780272755886,0.0029923373979867133,0
441,-0.028277312945739208,-0.21218210675932136,0
442,-0.039297385061237096,-0.06144053161542319,0
443,-0.049743471847283414,0.0014825610519259378,0
444,0.03288149441335893,-0.11839994252682727,0
445,-0.00039236745941657186,-0.05867132965110769,0
446,-0.03387426172643809,0.2542400950634186,0
447,0.07411094667028276,0.040009200351325235,0
448,0.05024004630788335,0.07125490552682737,0
449,0.06934225640302209,-0.02831351981469575,0
450,-0.08136436210709305,-0.030099146887006423,0
451,0.060751136694121105,-0.05392023341198955,0
452,0.0299000289819346,0.17365552945893453,0
453,-0.09172330651760735,-0.19087230180177847,0
454,0.04827728148799481,0.10196916271696053,0
455,-0.020857501755989334,-0.011117444592192131,0
456,-0.012600665755927122,0.008598749200910813,0
457,-0.04787503005955417,-0.053391903932120385,0
458,-0.07239616359162482,0.1105491600590452,0
459,-0.018192385950296184,0.08433466657106625,0
460,0.09364146491397685,-0.08104242119494119,0
461,0.030828767917424487,-0.1553617306090907,0
462,0.013625755980218349,-0.1353728959642579,0
463,0.01384689724938501,-0.2020529254860875,0
464,0.03991960442633605,-0.038163586017547324,0
465,0.11144330712670807,-0.013082410422171592,0
466,0.007583358125432129,-0.029079556388852717,0
467,-0.06532881444788818,-0.06521738225101836,0
468,0.017147240695804616,0.04000543659913801,0
469,-0.04732850735095841,0.08171530206395473,0
470,0.015899585599407844,-0.03626742451785308,0
471,0.10697499697606946,0.13381403477186513,0
472,0.011019433783896975,0.08057787017226223,0
473,0.01971416474494936,-0.0008754456244681367,0
474,0.03857859279915747,0.09223813559457959,0
475,-0.015138063128346821,-0.03988936947409042,0
476,-0.03459734214344182,-0.05098278570100377,0
477,0.024236690423547712,-0.029887920922060197,0
478,2.0242177313601194e-05,0.0046233163725959885,0
479,0.09205634985944186,0.12771694481940218,0
480,0.07620871004238644,-0.13312992682360186,0
481,0.044908202083860545,0.1361264472201261,0
482,0.003643141448043156,0.007051506346480313,0
483,0.03213909981045055,0.05319047307067002,0
484,0.030583220517995335,-0.053424019717734125,0
485,-0.03225853593394503,-0.04993122460095608,0
486,0.06493446280392857,0.1124010925246216,0
487,-0.005771410568292314,-0.062475550928449204,0
488,0.006755196203473107,-0.015691285781054783,0
489,-0.011491048955366187,0.1295460879883875,0
490,0.02328723978126843,-0.06315397774911749,0
491,-0.03305995077818697,-0.0639499019269089,0
492,-0.06427872063558411,-0.13970101097741797,0
493,-0.042507115969528435,-0.09344975612359216,0
494,0.04003406826850698,-0.06152558606823663,0
495,0.024956986114387847,-0.05181709616969258,0
496,-0.04894929957335513,-0.08222920040507442,0
497,-0.026362104665302942,0.012834060714193513,0
498,0.007412067536460443,-0.06419509819259804,0
499,0.10451890236352991,-0.012980407400515329,0
500,0.2303852650857196,0.15553964760574499,0
501,0.34489671298440644,0.4195814215372175,0
502,0.6487137234986318,0.5304371183414612,0
503,0.9887968279343037,1.0243714804764559,0
504,1.4949707905775684,1.4206156708373332,0
505,2.159371366372343,2.1242967317694643,0
506,2.7148362400014037,2.9946090425288,0
507,3.6949038270426224,3.401239669695068,0
508,4.460946720497762,4.539156889535708,0
509,5.391528931441185,5.548428653528312,0
510,6.116363042983201,6.120461185875818,0
511,6.718526434817089,6.8197832510341385,0
512,6.948075454554564,6.848167379479433,0
513,6.9133605463690015,6.829737041372591,0
514,6.389960768999383,6.321858973581814,0
515,5.671971834880071,5.457744854107098,0
516,4.489723912651169,4.419906479779308,0
517,3.0466094969085034,3.076553852324237,0
518,1.6539486995845396,1.6537211468793953,0
519,0.2903282426742727,0.09528991389828859,0
520,-1.1964301251109524,-1.124868628862422,0
521,-2.213185998322021,-2.4852068737287456,0
522,-2.8350633785473267,-2.8768104219968844,0
523,-2.8748561455443618,-3.06281959212232,0
524,-2.916678793774456,-2.786130969309044,0
525,-2.350430940503313,-2.3794302218978878,0
526,-1.5858340272272395,-1.7004808382409489,0
527,-0.8407643019071336,-0.6430043245966288,0
528,0.1199736495615119,0.11853536533037032,0
529,0.886006666421345,0.853255849869499,0
530,1.3897318566590198,1.1727418956403066,0
531,1.611811357026233,1.4607339720763584,0
532,1.5598872321007473,1.4265223592584326,0
533,1.263566234106422,1.1511011313711383,0
534,0.8597093164909297,0.8635734048413264,0
535,0.43857769753933634,0.4397421017963844,0
536,-0.06530166656037092,-0.049195214911025284,0
537,-0.4548915899893706,-0.2929819654886508,0
538,-0.7538735065823761,-0.5990170338273006,0
539,-0.8140085026839224,-0.8400522921301246,0
540,-0.761419395107114,-0.6877438799653339,0
541,-0.5458210904197056,-0.5104988591169658,0
542,-0.3176138761463936,-0.29654208947173566,0
543,-0.13842899214481746,-0.13382815564075584,0
544,0.10447174516305929,0.06532825359206579,0
545,0.21620598385203071,0.03187790029488513,0
546,0.3281481978860709,0.382459588778846,0
547,0.34398982067868156,0.11471224981041925,0
548,0.3065031867961449,0.26453104280497547,0
549,0.1719528908310416,0.3338615158769903,0
550,0.14707650574143305,0.20801033351011652,0
551,0.14975135299931613,-0.13676261101481316,0
552,-0.08295127470388583,-0.06275954368317481,0
553,-0.05552932232496097,-0.31168932612027334,0
554,-0.15745752787252482,-0.04371329354455625,0
555,-0.12108726205747886,-0.04490076744731405,0
556,-0.08226622738552553,-0.06944762733528013,0
557,-0.12251289267692997,-0.1516417191279991,0
558,0.04836894159896918,-0.19226727098777688,0
559,-0.06767404949285251,-0.02382759905489435,0
560,-0.02333877540263839,0.03153168103555519,0
561,-0.04353380532968004,0.03238151655535147,0
562,0.016943243572998312,0.07339632080391417,0
563,0.034631434009591885,0.13318438602438876,0
564,0.1513501480792375,0.11972713560839661,0
565,-0.04029765607290589,-0.018369278599510187,0
566,-0.019200167978085953,0.0006234791810314001,0
567,0.02814195701309272,0.129948484697215,0
568,0.028504184688520808,-0.12430252478256254,0
569,0.06827269036544523,0.1231726258684404,0
570,-0.007723205852688238,0.06739627737474929,0
571,0.03803152519359769,-0.06757486307978965,0
572,-0.025473397585468814,0.0888305195405138,0
573,-0.025065637355624604,-0.07637880099287955,0
574,0.051160258300792204,-0.24058015462498916,0
575,0.007633701015545892,0.09453710094412816,0
576,-0.026705562525570013,-0.011347620529750652,0
577,0.05741368770454523,-0.05816576450348303,0
578,-0.008682934517792461,0.11274036320186549,0
579,0.12552217566120896,-0.11556617256971195,0
580,-0.010274147540442355,0.27494072113677426,0
581,0.021481151273351907,0.025227022369243804,0
582,0.0021687027307436867,-0.09238557238621727,0
583,-0.04888934383018768,0.0558006865831061,0
584,0.03275591669904394,0.0014650206831508747,0
585,-0.006816794185954332,0.20075775648393948,0
586,-0.012000941027997671,-0.05058505719066223,0
587,0.07192862057753796,-0.030292648626962536,0
588,-0.019224777182655594,-0.1810061647503864,0
589,-0.061431752601688816,0.015971915034296257,0
590,0.025958436721560226,0.166674719953871,0
591,-0.01746468340547075,-0.18951328063809783,0
592,0.012200602545782634,0.014101137593881666,0
593,-0.07591509045732345,-0.16823872518630997,0
594,0.03819099300562918,-0.16506545291529548,0
595,0.02027964381673716,0.1329746376172003,0
596,-0.03781978779095495,-0.04421056386706446,0
597,-0.02638409599790442,0.11415579800638945,0
598,0.06518148473365268,0.03877224880474474,0
599,-0.040032580474977784,0.062436870686684395,0
600,0.002164163273071442,-0.11585877177951481,0
601,-0.016727745133941836,-0.08829365089134279,0
602,-0.048125426623993106,-0.029563876574771056,0
603,-0.030139941213101668,0.06456709191389465,0
604,0.049612919104738515,0.04741810842940916,0
605,0.08765064531228527,-0.08035296832770185,0
606,0.057063194958207684,-0.1209209107312743,0
607,0.06926476802743602,0.06189264370926674,0
608,-0.043379637391942255,-0.09378387174944099,0
609,0.006256512975601691,-0.10528137060315149,0
610,0.05173745319741225,0.09549702295801969,0
611,0.054469004877826285,-0.003765587993773961,0
612,0.013373321413639038,-0.12303905064448777,0
613,0.08215350602533315,-0.0483347647029033,0
614,-0.038630137580797426,-0.007822580717767926,0
615,-0.009414948962475498,0.2201034500711841,0
616,0.035402879124955766,-0.03556509112113469,0
617,-0.051511890454748605,0.05233747058438026,0
618,0.062054609314990655,-0.023653100548275463,0
619,-0.04148816611271552,0.011447890384587645,0
620,-0.02337287242624112,0.09409715106308601,0
621,-0.0826550232425974,-0.014055946218615598,0
622,0.023060304425552017,0.13465816950111015,0
623,-0.009284849900077524,0.12513561303153442,0
624,0.09184266843560657,0.011094154252725287,0
625,0.16498771969033324,0.3820891853307356,0
626,0.3695392048307809,0.4666577034062882,0
627,0.5327490324890694,0.6225238747408693,0
628,0.904917661612032,0.8463892462233209,0
629,1.3603577626153267,1.6992119131815069,0
630,2.0148452289461174,1.949793817357913,0
631,2.7519024373349743,2.567482064786262,0
632,3.653073736022541,3.602723479893735,0
633,4.427201694140931,4.368795595980899,0
634,5.293403341155775,5.28063430231512,0
635,6.043428744605608,6.067986208320423,0
636,6.553986864152506,6.516428244585833,0
637,6.8890055200676965,7.028202082793897,0
638,6.915185047693194,6.900817651793221,0
639,6.481709294347691,6.554184142652387,0
640,5.65512682933992,5.591968226092852,0
641,4.653655786570472,4.76980530753403,0
642,3.2307755017029685,3.257966704667346,0
643,1.8829631476619477,1.6620159839500115,0
644,0.466946275186841,0.28739649408780854,0
645,-1.0460585677287229,-0.9755489465343395,0
646,-2.0297817218395036,-1.8828682630757019,0
647,-2.791643791161026,-2.77838674038704,0
648,-3.018657430847019,-3.107587823223993,0
649,-2.8538638199264317,-2.706590124688749,0
650,-2.39875911202883,-2.3325773869801876,0
651,-1.6538040199313029,-1.596880283821398,0
652,-0.8274388707888527,-0.940826232387553,0
653,-0.10715020550727167,0.01617790243198656,0
654,0.8278821264866478,0.8070779946995251,0
655,1.3282467787192562,1.228764108924435,0
656,1.551074942566387,1.593967999760258,0
657,1.5004604959357795,1.569756427189452,0
658,1.411034548011056,1.4053825956678239,0
659,0.979731687207754,0.9818823976032731,0
660,0.5162716987774372,0.4596947525450912,0
661,0.040440345293028694,-0.12692204331651355,0
662,-0.38970285372422847,-0.5757046610450733,0
663,-0.637992505766021,-0.8820745140732128,0
664,-0.8874274051449464,-0.9779858876990957,0
665,-0.7583436696983946,-0.7725998896745697,0
666,-0.6491143494086034,-0.5250602037600336,0
667,-0.43878552460077286,-0.28430807753827536,0
668,-0.062486679269045886,-0.25008356636580165,0
669,0.16217239960445362,-0.08015421094833441,0
670,0.19158191171140043,0.14136845919975227,0
671,0.37039943544762194,0.2550963864872459,0
672,0.357849231795597,0.40308318138298616,0
673,0.30597291984339575,0.3419140213583079,0
674,0.20149738606822076,0.3790209148898268,0
675,0.06803651462074976,-0.07772365920518365,0
676,0.02768017774956673,-0.07592934071280136,0
677,-0.06325044174953688,0.0026872071459340396,0
678,-0.09772157154154971,-0.13661982129046094,0
679,-0.010071183891675689,-0.10340820020273683,0
680,-0.0748436694033169,0.08390130177319967,0
681,-0.11278154788183066,-0.24586792481390318,0
682,-0.05432096365355696,0.0029030534928630933,0
683,-0.02980836782550108,0.12445224810317938,0
684,0.09960779051247537,0.2772576516637667,0
685,0.07958981183890777,0.07392387474808977,0
686,-0.09681469304293222,0.17529498252157139,0
687,0.031030384268112044,-0.040623388661614974,0
688,-0.007824603422510328,-0.16493995273544296,0
689,0.005249029028662361,0.02456436670788016,0
690,0.005207340357817958,0.12766812478055278,0
691,0.021656477712553104,0.14599075365058994,0
692,-0.027574789119265346,-0.014372381102455915,0
693,-0.035734893947230194,-0.20422796380561503,0
694,-0.0023274589164868405,0.12925738044910995,0
695,0.011258155442741155,-0.009898235729965007,0
696,-0.023221019988600114,0.03496279753742874,0
697,-0.042674535106047407,0.012142299010482518,0
698,0.09526531775693792,0.29521012714340256,0
699,-0.052083200467122406,-0.04342335342116867,0
700,0.038570971834041325,0.03402653531361905,0
701,0.05360544263777942,0.11030067003302657,0
702,-0.013531995056386605,0.20121451954744313,0
703,0.024854546318182947,-0.1508661482591642,0
704,-0.023511888595844157,-0.07870061378216918,0
705,0.019146762205795184,0.06454355373023832,0
706,0.1145160717758556,0.08156237751133688,0
707,-0.040295283208491024,0.08585691526969909,0
708,-0.05636579540965302,0.10763580510025571,0
709,-0.04402290682323388,0.11804518658098791,0
710,0.02642480103026265,-0.018444326641563973,0
711,-0.09948641300920304,-0.028858489764897802,0
712,-0.02169858953771811,0.13596556850246105,0
713,0.05990121449769778,0.04517231977554103,0
714,0.006062838708345133,-0.06003775729649105,0
715,-0.06971157956239729,-0.0887814871815158,0
716,0.012056736706899673,-0.014885562842512677,0
717,0.036568268054087735,-0.02859041486746713,0
718,0.007214843877212004,-0.20993351846481173,0
719,0.03187204183359209,0.15675286802982089,0
720,0.03464815757649051,-0.023201756411240785,0
721,-0.024446701372936357,-0.029312188445048144,0
722,0.037566865576296724,0.0534509982489889,0
723,0.02525617086260021,-0.0671949476147146,0
724,0.11338787333278508,0.04134676660306719,0
725,0.0052589983598408324,-0.040742671919722306,0
726,-0.014809537303249267,0.08505347997666486,0
727,0.015798344700342304,0.03460385610194835,0
728,0.03238541807384789,-0.09636710841758066,0
729,0.06840390245750456,0.017055752414683552,0
730,0.06656401808297005,0.1048932611472395,0
731,0.03815282934500568,-0.08894487428425721,0
732,0.01923873296482384,-0.15025350862792394,0
733,-0.024782570839685956,-0.059832132946612666,0
734,-0.034343032748694685,-0.07284319495767513,0
735,-0.11323856400308709,-0.07679785539029266,0
736,0.028836919411772296,-0.04386862279512011,0
737,0.013121395350309824,0.12476341497949418,0
738,0.0805245220690673,-0.04816059509384635,0
739,0.014423485349829665,0.07196471634014016,0
740,0.004061931345952944,0.06722538989194128,0
741,0.01319565140799812,0.06102558140887263,0
742,0.015364959095271021,0.004170816904314619,0
743,-0.047442060815778606,-0.12679669031469412,0
744,0.050422275847489643,-0.14025230539231323,0
745,0.01173715227934444,-0.0015578194962533594,0
746,0.07315048027959845,-0.05676960106130191,0
747,0.054812260197910787,0.04054221979066155,0
748,0.024087416337957315,0.032954258195591446,0
749,0.10077898155174965,0.06365358652038283,0
750,0.2052370733626455,0.24257450642800532,0
751,0.24501864362090864,0.2914187342412229,0
752,0.40870660082548166,0.3838951447459943,0
753,0.851244360624438,0.9867457764063512,0
754,1.3224397957507843,1.4866202562383823,0
755,1.9129257048470882,1.8586548158022131,0
756,2.5467533965238576,2.4458431838924106,0
757,3.460432630364075,3.380164390514761,0
758,4.427201245186385,4.360095515586091,0
759,5.143480470261297,5.096625496991186,0
760,5.940653974092539,5.735306879092447,0
761,6.602502555633302,6.524344213484973,0
762,6.914541941772621,6.989219326216747,0
763,7.027121173642258,7.013396291877039,0
764,6.600318859084831,6.443571220754526,0
765,5.793307960930714,6.011001060845901,0
766,4.642611274195547,4.684448572509122,0
767,3.5356981814387085,3.511671777426343,0
768,2.100741308530636,1.930042399041953,0
769,0.6212098557851832,0.5855580925278051,0
770,-0.8375150453299853,-0.909624566611327,0
771,-2.0939788132522117,-1.9416245661873182,0
772,-2.732543859557617,-2.4460600980319454,0
773,-2.9627838965742876,-3.2086003140705825,0
774,-2.8583046698244647,-2.8427289104251257,0
775,-2.5153547275987647,-2.380247591618197,0
776,-1.8188239118787317,-1.9866918374265632,0
777,-1.073840299667984,-0.8672635348369342,0
778,-0.06685007819772198,-0.2393112843890196,0
779,0.647562926217552,0.7078076917310117,0
780,1.429900874982417,1.310643473914644,0
781,1.5475400626113893,1.5862459604189179,0
782,1.611214873405041,1.576586249736051,0
783,1.4153377896290673,1.2641723097573296,0
784,0.9634875053726863,1.0080056854806687,0
785,0.5471285780395992,0.6519518963236617,0
786,0.06949232773389777,0.30560188709619596,0
787,-0.3196042047318066,-0.2962640307853217,0
788,-0.6310668977870658,-0.7180428063042964,0
789,-0.7769143358841617,-0.7082776942977511,0
790,-0.785776523487849,-0.49591461934980524,0
791,-0.5906790373092099,-0.5559656125060233,0
792,-0.4285787188794726,-0.5408611324544843,0
793,-0.20256818306028748,-0.09363529196201303,0
794,0.12597877813027752,-0.02932024394324361,0
795,0.26970399093906583,0.24151620802541832,0
796,0.2978217899921536,0.3626828220070253,0
797,0.30480870988594383,0.2395456146154037,0
798,0.2852267068083481,0.1837278162138698,0
799,0.2151310221027693,0.09051413259324989,0
800,0.13303989650231063,0.16132261801221087,0
801,0.026006255796193714,0.1457580768151662,0
802,-0.023730825808229706,-0.006932610232673962,0
803,-0.1459250768787891,0.009826345285552818,0
804,-0.15738672587900074,-0.33509430456144246,0
805,-0.05862499337224136,-0.20429111304883285,0
806,-0.0776942424798471,-0.19402641400898799,0
807,-0.02133540988992761,-0.0563251561834248,0
808,-0.025629985385813618,0.029132012358841573,0
809,0.029854288731490507,0.05609772746051095,0
810,0.1287460080710888,0.07673657422405505,0
811,0.09819044685642216,0.17567449657171336,0
812,0.05260915156806589,-0.10997752826008031,0
813,-0.036161193034367115,-0.03994300943998058,0
814,0.01906606661408094,0.1918929534187325,0
815,-0.04941101182276681,0.03689424044668212,0
816,-0.048010363512707696,-0.04151586364266812,0
817,-0.09176540645042276,0.02448454484652967,0
818,0.04687856126293724,0.022395547523274776,0
819,0.018348811277055246,0.006823370478755805,0
820,0.0008170660889878032,-0.07485309684145566,0
821,0.04953798454236161,-0.10673385206829725,0
822,0.05460886983748665,-0.06022197939730018,0
823,-0.018496385230419302,0.018515256452873448,0
824,0.05861611936958383,-0.016398928739746032,0
825,0.05439740018720785,0.10997427589163529,0
826,-0.013964798154743179,-0.061719896696303844,0
827,0.01615769611481394,-0.07706984321642318,0
828,-0.04565505841270802,0.03293397884179843,0
829,0.07723329699908267,0.023084821752998936,0
830,0.028602902570501337,0.05162887138273273,0
831,6.0312180227621186e-05,0.01275971522314344,0
832,0.06151571529431897,-0.07476104376465241,0
833,0.033008025416219035,-0.11149471774451276,0
834,-0.03283998659700388,-0.09943781274125943,0
835,-0.00024083620854447387,-0.02407420353796567,0
836,0.044237322595994305,0.1987850585163164,0
837,0.03890055763154177,0.0463254384634937,0
838,-0.04786254079900548,-0.0912601359817478,0
839,0.029185547472903344,0.06870550021858568,0
840,0.018357473409974026,0.01191124082875975,0
841,0.020314110780662496,-0.18671501274137142,0
842,-0.027162666515645573,0.11455537818151638,0
843,-0.015367022101495298,-0.2445200654083857,0
844,0.015328595330187255,-0.15735890939008937,0
845,-0.02373550289991507,0.016537466155783383,0
846,-0.009761522781032242,0.02442817161328302,0
847,0.08342083429875,0.009596301938971838,0
848,-0.02742687104175668,0.036508728336572864,0
849,-0.0063307006909620635,0.006409852257832952,0
850,-0.04598503584328826,-0.011713534428128591,0
851,-0.09513686644239475,0.12240545972247813,0
852,-0.015304976033955553,0.09930293505532678,0
853,-0.09487709556815707,-0.008351156730081471,0
854,0.05054371752422447,0.0459251141806781,0
855,0.0557201197129438,-0.034451346646437085,0
856,0.06633752088347471,0.02849140472824928,0
857,-0.0038457398576963752,0.07537677293347035,0
858,-0.006688145699516315,0.0033745098963808458,0
859,-0.033811040181639655,0.19431636716132825,0
860,0.015580239539568505,0.03140722113841856,0
861,0.038088627887285474,0.0777838028117682,0
862,-0.10243074528312779,-0.3196674165489563,0
863,0.04484659610089291,0.1611059831976904,0
864,-0.04553457393608969,0.05247386902539761,0
865,0.02774094117197198,0.016394584394927497,0
866,0.0270294038540885,-0.17500390875007782,0
867,0.03868783449391313,-0.0054273299271332025,0
868,-0.037066186178047446,-0.0006496970600201481,0
869,0.03125040199687469,0.0035737777580058944,0
870,0.025787405400492,-0.03314558935644966,0
871,-0.08405012117116324,0.06988058411435165,0
872,0.02670793514116442,-0.018420494195018344,0
873,-0.07524642768251139,0.0792313259288301,0
874,0.016979993580590262,0.2917690064498447,0
875,0.08048131261091537,0.14141036657247952,0
876,0.24422279542135963,0.3632644524957923,0
877,0.5960806221207315,0.4669825173743759,0
878,0.7933175915575156,0.9179534198530853,0
879,1.2038280935567567,1.2624269597526465,0
880,1.802134974090156,1.9089747152286658,0
881,2.5431318628600734,2.5623951676370673,0
882,3.259243891624313,3.4672907450660935,0
883,4.1871247498411135,4.183247928088739,0
884,5.107333482663367,4.931493319056114,0
885,5.8693812928120686,5.895192357926311,0
886,6.462456488597749,6.477609901975803,0
887,6.833396708513202,6.9780700364249615,0
888,6.932086007734843,6.886719643874956,0
889,6.633165063944676,6.637613949830362,0
890,5.8533678832735525,6.078488107323632,0
891,4.894623760013396,4.885531443795294,0
892,3.646381802964027,3.6833564219261956,0
893,2.2745816281445035,1.9331463580258537,0
894,0.7462377839131097,0.7284652274490212,0
895,-0.7383274247049828,-0.7535849754386815,0
896,-1.868869741449174,-1.914380203076388,0
897,-2.7055065965603973,-2.6139212948408224,0
898,-3.022361886764586,-2.8375107648982927,0
899,-2.9937477275024404,-2.7726967499836856,0
900,-2.488596066416078,-2.610835642917363,0
901,-2.0295545208125496,-2.093458649988987,0
902,-1.1573764127718698,-1.0618711273565673,0
903,-0.19900869048813205,-0.26269219521467646,0
904,0.6127082237308902,0.5743577349274167,0
905,1.2321871420259218,1.0939000271515071,0
906,1.502601186274331,1.6262137814768383,0
907,1.5965560577198226,1.7019916503380912,0
908,1.4504306061269772,1.418480937232435,0
909,1.1335303712768645,1.129184821412934,0
910,0.5592908559297243,0.7774551283679753,0
911,0.1056056401219,0.10156338448012314,0
912,-0.26589290033057333,-0.2564688654778463,0
913,-0.6260343113995209,-0.5847444178673213,0
914,-0.7870266687452458,-0.7757539744817032,0
915,-0.7150241139054523,-0.6231977343623627,0
916,-0.5797120208329023,-0.5703879534490114,0
917,-0.5096962778185882,-0.5075011797013638,0
918,-0.28393984532724204,-0.149056136934962,0
919,0.10287930596213819,0.04903576039852093,0
920,0.161702813896871,0.20260876066754474,0
921,0.315439174360368,0.1610249978395608,0
922,0.2600832789428027,0.15197912011994452,0
923,0.26266008846491024,0.3191408122563564,0
924,0.19831270761547526,0.2124082116669928,0
925,0.13962044132456125,-0.006713441686968524,0
926,0.1031196111606873,0.0021920419846220424,0
927,-0.008445413930950767,-0.14576773902253962,0
928,-0.08162489132568923,-0.1485411989035643,0
929,-0.18904054521469346,-0.04532772953697642,0
930,-0.08504537037928524,0.019296350662626763,0
931,-0.09820069370695146,0.031042791587218316,0
932,-0.06629512848234848,-0.14541242517764885,0
933,-0.036802773643852774,0.03214622154038571,0
934,0.06361866092520707,0.22113746326451758,0
935,-0.07342996524319924,-0.025164236592462325,0
936,-0.07462863892525982,0.02803640815059568,0
937,-0.04116833819181443,0.008910917919436608,0
938,0.06326136297851002,0.09296453869997093,0
939,0.0980427298386766,-0.12753034809395325,0
940,-0.04247311626243934,0.005672614981068775,0
941,0.04362074696960284,0.14017089703655286,0
942,0.01162413366845986,0.021283630218334543,0
943,0.050930513907227574,0.04254447461306911,0
944,-0.10274327093116675,-0.19013596876096786,0
945,-0.015190710230789467,-0.036984132609589576,0
946,0.07256394289901473,-0.15818191329281112,0
947,-0.003064147391701177,-0.01081554335228402,0
948,-0.007453116022219185,0.005245345645640284,0
949,-0.02489540638873817,0.04751960920591035,0
950,0.005803363336630212,-0.005508028465195096,0
951,0.0334390395369011,0.10532712673450294,0
952,0.034211358097787144,-0.11563531143719234,0
953,-0.032365051538174046,0.16790622977564315,0
954,0.09993100026795516,0.029691593547803333,0
955,0.060914586700378665,-0.06085203227474804,0
956,0.04081029733325596,0.1743058370066316,0
957,0.011660905670844945,0.05208686527606332,0
958,0.09898091117619076,0.02480390473627667,0
959,0.04222723704265367,-0.07828606310343533,0
960,-0.03814174341813806,-0.04895287139217988,0
961,0.09485705478320405,0.12322191564924917,0
962,-0.03523331166678748,0.07748342886491644,0
963,0.07394447206482813,-0.05250089184837,0
964,0.04423331509998843,0.051109535874967214,0
965,0.024307663985879076,0.0830202916408091,0
966,0.08443125486884721,-0.10050559006898066,0
967,0.108318969853143,-0.08568895833770276,0
968,-0.05584861149661713,-0.034500968423113176,0
969,-0.03100181551772032,-0.08334996339941925,0
970,0.02930908503612626,-0.13622522726540828,0
971,0.0999795586872785,-0.05261393378895775,0
972,0.029263428157764802,0.11227111416420646,0
973,0.09093921118367984,0.05454528352244957,0
974,-0.008849869898609567,0.038340601524343355,0
975,-0.008643394052885271,-0.03648652343388741,0
976,-0.022947136446575467,0.009925013921577346,0
977,-0.06751753673498122,-0.1680289957157577,0
978,-0.04504380100737963,0.016049170911122467,0
979,-0.027491457417744017,0.04170977833263679,0
980,-0.04900930382615085,0.06600852205915532,0
981,0.02408654003653396,0.07210781112850598,0
982,-0.09498448561364543,0.04675966616027588,0
983,0.014551462162943823,0.24721432499903098,0
984,0.10509692696571775,-0.06953769587781246,0
985,-0.03109832590918845,0.038746600900840596,0
986,-0.02317703707152839,0.027103619815983537,0
987,0.05544752178414343,-0.13106996816378022,0
988,-0.006600007530974131,-0.18697153754756216,0
989,-0.08259239101759665,0.011636097680846736,0
990,0.053680266248266294,0.15423086327272068,0
991,-0.06071281110045326,-0.04028559464820116,0
992,-0.08408448887967283,-0.020036923974485293,0
993,0.08510832784757391,0.07745912225821144,0
994,-0.024600800609535664,-0.00700136163328636,0
995,0.03974514702912788,-0.06853565762841025,0
996,0.0491823307502019,-0.024319130752523347,0
997,0.03397723695568966,0.07108392667773594,0
998,-0.012008670665073204,0.04462248656499272,0
999,0.04781810883172606,0.07349738170261166,0
1000,0.10221314811284948,0.15242644582832646,0
1001,0.31807157499170763,0.4096365196044864,0
1002,0.4942686885120313,0.47456564114530375,0
1003,0.8083667800820118,0.6449608706822492,0
1004,1.1609697940155521,1.3060733127525068,0
1005,1.7899449762301218,1.7150746326909527,0
1006,2.3821464279168536,2.3405416432899675,0
1007,3.248854268052678,3.204928626098766,0
1008,4.133397353913477,4.009017304050647,0
1009,4.975554795481247,4.874431337910377,0
1010,5.718266744752782,5.732783207861343,0
1011,6.461399308018032,6.464783101531054,0
1012,6.893546910417239,6.861175839984792,0
1013,6.9531197300909495,6.91851815869719,0
1014,6.719010776225518,6.79940241233704,0
1015,6.1168739686796245,6.08211264216914,0
1016,5.081380162802288,4.996262986768254,0
1017,3.8708787259667052,3.821964406731609,0
1018,2.6125981028001637,2.4544644616599984,0
1019,0.9371909056620689,0.9352981017891911,0
1020,-0.3606492897757144,-0.30131023550457403,0
1021,-1.7370612961636753,-1.6777863365203727,0
1022,-2.5315849222688085,-2.6037924393607854,0
1023,-2.9816831003338504,-2.9648667710487024,0
1024,-2.9640426947530107,-3.151051960820371,0
1025,-2.702580698470357,-2.668536194473915,0
1026,-2.0202839148692537,-1.8728731015876485,0
1027,-1.235024286746768,-1.1958513513523452,0
1028,-0.40681168523908673,-0.35185637761290384,0
1029,0.5257405903944595,0.44063370144780756,0
1030,1.193908980358319,1.1622130290305892,0
1031,1.4792045558143145,1.4460399925968381,0
1032,1.6105576554058103,1.7441552299572025,0
1033,1.380231939613908,1.4458284928008447,0
1034,1.0894755751839347,1.1724408565933784,0
1035,0.7347280673350288,0.613102600850181,0
1036,0.2441789565676431,0.29875752006649414,0
1037,-0.16192342566080295,-0.4292459599055909,0
1038,-0.5406293125042323,-0.35908914839831196,0
1039,-0.6880222667273471,-0.7314872413812656,0
1040,-0.7604130971573803,-0.8830303936214493,0
1041,-0.5684387858377848,-0.5767898749654414,0
1042,-0.46298231999509887,-0.3353132424737318,0
1043,-0.3398940951759059,-0.295060889987307,0
1044,-0.067964724716499,-0.12069623249274895,0
1045,0.1528035823677601,0.08572629821167337,0
1046,0.3905211117894373,0.2795820571872212,0
1047,0.2537637469030637,0.13737271045968244,0
1048,0.2846284935899557,0.42686421725212,0
1049,0.13866676386467705,0.16623245830336864,0
1050,0.09751897999326999,0.25970670510182786,0
1051,0.0794029880816961,0.08931644348946904,0
1052,-0.0033360609577892525,-0.06046247010530345,0
1053,-0.11597713592802492,-0.06660208841490928,0
1054,-0.15659277610932773,-0.08458499962585549,0
1055,-0.1497452795539707,-0.03891912172758709,0
1056,-0.06484876665739925,0.013075559386984778,0
1057,-0.155731338119866,-0.026867280522273725,0
1058,-0.0655205681610884,0.02263853971101092,0
1059,-0.04936356351548495,0.06791957012391561,0
1060,0.04065848866937711,0.02384099472104253,0
1061,0.026101894554069936,0.06341227845725994,0
1062,0.005260271236367648,-0.041397999644425705,0
1063,0.014093197483682651,-0.09253627330104755,0
1064,-0.02343739576094976,0.17118902105402398,0
1065,0.03173510542042143,-0.10111813234935652,0
1066,-0.028968589829409,-0.05870212478422832,0
1067,-0.03161848111762503,0.03105511815854403,0
1068,0.00966726249237776,-0.06623793454219058,0
1069,-0.07649448021546798,-0.08231007452048071,0
1070,0.05010181357757547,0.07597428189369693,0
1071,-0.05303830239404286,0.0350022563858203,0
1072,0.03278805059196,-0.007942617096939573,0
1073,0.03400595686702916,0.07237252998728227,0
1074,-0.011545435845846096,0.07108448792816935,0
1075,-0.08970005249230859,-0.011559448663614042,0
1076,-0.08063986118299682,0.1195714027346684,0
1077,-0.020283588010327747,0.005433900932349503,0
1078,-0.00748095966265572,0.10477785793993172,0
1079,-0.08479293464686241,0.04545880135091093,0
1080,0.022054258105125523,0.06634944312651746,0
1081,0.035464472407940366,0.0046909447995576595,0
1082,-0.05095020744116759,0.0063888795866339845,0
1083,-0.0006411196074309006,0.10434733084829624,0
1084,-0.028032989139851503,-0.15324637629084883,0
1085,0.013300537711522172,-0.06872543617515231,0
1086,0.05624609877956728,-0.10243025199838884,0
1087,-0.03885849622221894,-0.0654600002494238,0
1088,-0.06872525702839916,0.022393860285084326,0
1089,-0.026674146364897462,-0.06380675401472252,0
1090,-0.037805838865532015,-0.11197179922001715,0
1091,0.06604621906366052,-0.04350590187166117,0
1092,0.013115493096551478,0.253758970413734,0
1093,0.1053169859376443,0.11468960274758327,0
1094,0.040166052242378146,-0.11750895563475242,0
1095,0.06336350119824606,-0.03205692937440018,0
1096,-0.043075429835004904,-0.20449792531879346,0
1097,0.03377353866674285,0.05027089810557323,0
1098,-0.047912697660529656,0.0214582383085095,0
1099,0.026103809778694885,0.06198507377845475,0
1100,-0.05985773879603889,0.14499973138655592,0
1101,0.045026818036790275,0.11613654225502677,0
1102,-0.025307180110123614,0.11372806013211305,0
1103,0.01001728415980218,0.025866865235362704,0
1104,-0.05207154341396632,-0.039129627971525534,0
1105,-0.02221466745688264,0.023594699765535583,0
1106,0.059907244878476956,-0.10320574565618333,0
1107,0.0033366650648458808,-0.04016995664157111,0
1108,-0.04023049741847813,0.03420611137897077,0
1109,0.05128376351353481,-0.049776294266129784,0
1110,-0.059674433671188076,0.10239544883907997,0
1111,0.05844257357772271,0.0932195674822083,0
1112,-0.0017890709151780944,0.1695785074949574,0
1113,-0.0073054191586857265,0.14661946742188153,0
1114,0.03667002539270522,0.10447711297314036,0
1115,-0.027019674836081368,0.18945786641582504,0
1116,0.03309698895462021,-0.017314097711517394,0
1117,0.03353949004273317,0.024246757160842777,0
1118,-0.11273196658071863,0.09179610827905532,0
1119,0.016174032534189253,0.008280548915998968,0
1120,0.003709130619649124,0.19002794633486356,0
1121,0.027719757694658426,-0.056836827308431884,0
1122,-0.09144940801408567,0.24228985422504537,0
1123,-0.06552932308077833,0.001016066190055176,0
1124,0.11335205861770756,0.21286575137046987,0
1125,0.20657196272211686,0.015341909448989152,0
1126,0.1388316843671728,0.1248916657980146,0
1127,0.45606682499017165,0.5659048249173707,0
1128,0.7403638477452378,0.8125185907886624,0
1129,1.0937306152774824,1.0820408568171112,0
1130,1.6575857264067162,1.5275299869596257,0
1131,2.446258456986771,2.4942518563937526,0
1132,3.1773834344865577,3.260772644877775,0
1133,3.9357275479993663,3.933059639712608,0
1134,4.853732183430499,4.976306268332129,0
1135,5.668334121567293,5.5368054839768615,0
1136,6.401216321576529,6.4786320645459705,0
1137,6.830086184200284,6.767592470641065,0
1138,7.020958681810314,6.908921187976482,0
1139,6.669214026836049,6.700653672983081,0
1140,6.155456470331458,6.118869538153621,0
1141,5.318619589255252,5.3611228929853745,0
1142,4.033133641691002,4.240651932811053,0
1143,2.7105551874345863,2.6872106548984256,0
1144,1.192628098249292,1.1558584372240732,0
1145,-0.23373765163393667,-0.28249357537413194,0
1146,-1.560657473423582,-1.7666277750094714,0
1147,-2.508817065223164,-2.566842444968781,0
1148,-3.048184950606729,-3.0466908611879515,0
1149,-2.995534494468608,-2.943729497988236,0
1150,-2.6842306421688495,-2.7051846441537863,0
1151,-2.091268239114229,-2.1312561451019985,0
1152,-1.3608756024831543,-1.2810563589764876,0
1153,-0.5103945978359026,-0.5027162427673364,0
1154,0.4077396860369705,0.20952181995329575,0
1155,1.0675425915279515,1.2176185748003936,0
1156,1.5794261309584856,1.4001768801920993,0
1157,1.5850317904701012,1.5776026295163974,0
1158,1.519406896871626,1.3584507202678557,0
1159,1.0533790835405368,1.0939635720069216,0
1160,0.73317115327758,0.711980326483392,0
1161,0.18380255578550836,0.202200710270444,0
1162,-0.13921333821840604,-0.215090901079496,0
1163,-0.5325292536141141,-0.5118735908870317,0
1164,-0.82334225575378,-0.8153033560381375,0
1165,-0.7410244170781541,-0.8504658087574283,0
1166,-0.7198778605558636,-0.6341610138690891,0
1167,-0.5421504138655839,-0.4217331569879874,0
1168,-0.2759312882190902,-0.3580013331630572,0
1169,-0.0380859240155822,-0.2822447689502845,0
1170,0.2342582953200855,0.16990619642280144,0
1171,0.25752823814426284,0.14302478090145088,0
1172,0.3657818970199842,0.38241733988605475,0
1173,0.3761852004692039,0.2277032953002845,0
1174,0.30122172088838495,0.2812830593936346,0
1175,0.14561983222201005,0.08702167582881584,0
1176,0.10368016628724455,0.24735465644773805,0
1177,-0.034137727281417694,0.08218025713117363,0
1178,-0.0753051938297174,-0.07704876107103545,0
1179,-0.06462440877992806,-0.16786545264414576,0
1180,-0.14036212996562875,-0.27487011361580943,0
1181,-0.11143522975334565,-0.1488722600192507,0
1182,-0.15654206530633322,-0.09875498139029122,0
1183,0.005161099879491364,0.018923774427431726,0
1184,0.027282276085354152,-0.1693718417558099,0
1185,-0.032143484762326716,-0.21590654618436303,0
1186,-0.03316858683258953,-0.07255732269714962,0
1187,0.022996513617810955,0.20319672883360276,0
1188,0.024705462310421818,-0.08737615115889633,0
1189,-0.060346646363783535,-0.09874284139728744,0
1190,0.026456569941919028,0.12467148089768458,0
1191,0.017835693807691854,0.016812096950117348,0
1192,-0.00314442201470238,-0.08622021218105312,0
1193,-0.008321209199132968,0.050712938120697076,0
1194,-0.07417413462217888,-0.02836314357713466,0
1195,0.10680557952441119,-0.15467241072746885,0
1196,0.001313611230452472,0.05195941893236681,0
1197,0.04064795825758652,0.05894383243836976,0
1198,0.0550641246491428,-0.002304759489462412,0
1199,0.05157352491023196,0.0795698339062456,0
1200,-0.05707689772796161,-0.04688300933615663,0
1201,-0.0037469993516840022,0.03156580556876255,0
1202,-0.03841378775630355,-0.19378377347281114,0
1203,-0.06549136828527628,0.005127496069016931,0
1204,-0.012702765260954341,0.18692783464427284,0
1205,0.04984746218929166,-0.05707535531024085,0
1206,0.09337612799303341,0.00995152984871371,0
1207,-0.03915607640352874,0.00970493291288211,0
1208,0.0031576576663390828,0.03987480258039521,0
1209,0.019025791005887,0.13765983897396578,0
1210,0.030937912429827654,0.09922374297931537,0
1211,0.05994480227897604,-0.11232321794695233,0
1212,0.07137101622957359,0.006099227050906048,0
1213,-0.0050875069615099475,0.01885702658003779,0
1214,-0.06401035108086998,-0.02678545500517774,0
1215,0.03618386228119261,-0.013312002465827933,0
1216,0.04370740726209622,0.0690661732614783,0
1217,0.03003887932661203,-0.1161216253935668,0
1218,-0.11255759307954134,-0.01954682060026482,0
1219,-0.0631468614378927,0.04794268458837723,0
1220,0.1042410296019485,-0.009686636973220163,0
1221,-0.021320870274623222,-0.1044651406248705,0
1222,-0.045581093077719806,-0.040568763972573293,0
1223,-0.013025984087538037,0.07644296280398052,0
1224,-0.02574645875480037,-0.010054141172946479,0
1225,0.03508045375691625,0.06093485552777363,0
1226,0.08985332476749998,0.048861957663129625,0
1227,0.022472760502696438,0.05744463156160603,0
1228,0.05630848744936001,0.12108591245121665,0
1229,0.032174661954540086,0.0026427008618637613,0
1230,0.05036299659676541,-0.027454954093463813,0
1231,-0.023808108953138552,-0.00532058780777841,0
1232,-0.010733451936838515,0.06358243140428468,0
1233,-0.006146473219241825,-0.06790326762085076,0
1234,-0.012756890250762069,0.1097504763363305,0
1235,-0.010305859666508986,-0.04102297846550749,0
1236,0.1337588072630396,0.10708084043872851,0
1237,0.02132822840438816,0.03641252445744535,0
1238,-0.0030522309697373477,-0.002660549906909741,0
1239,0.03757742651147271,0.04144025489318387,0
1240,0.02312196199365886,-0.019869208965797178,0
1241,-0.10559246687058016,-0.05024601800475473,0
1242,-0.03199587698096676,-0.10917572654261029,0
1243,-0.05945586070390619,-0.22161985519174118,0
1244,0.11103907038890111,-0.04844927267033605,0
1245,0.03439138267262885,0.057023504299707276,0
1246,-0.12058866409397584,0.07714298052234503,0
1247,-0.010030135389115282,-0.10781677417616169,0
1248,0.053651964513674176,-0.004442109710249288,0
1249,-0.00401593535360744,0.10034839565705427,0
1250,0.13573379153317233,0.04478791202819728,0
1251,0.2515997926027141,-0.011544866174650198,0
1252,0.29344543424737013,0.39589360084201225,0
1253,0.5195675108768129,0.7114488381521559,0
1254,1.0034105773986715,0.9552351417091016,0
1255,1.5305825289130919,1.3582368292004148,0
1256,2.172576276153173,2.3839821642837156,0
1257,3.0060485267512056,3.1257089396300497,0
1258,3.796669842424685,3.9409211943079274,0
1259,4.712749584587947,4.696343290360388,0
1260,5.4945211545575185,5.584409802575392,0
1261,6.280509853086411,6.122076900789203,0
1262,6.820706769130949,6.890547753899479,0
1263,7.0281717347262385,7.073984273130249,0
1264,6.872066579188024,7.040053072857065,0
1265,6.280442400553253,6.192699818044607,0
1266,5.345853611071286,5.340109262205315,0
1267,4.124498755773221,4.156290465555007,0
1268,2.825773090266215,2.8569833288995947,0
1269,1.4029243792927377,1.4575735584636504,0
1270,-0.16629166457784067,-0.24794849446714362,0
1271,-1.356382027883301,-1.3171247814179539,0
1272,-2.3752420680189923,-2.3824658834393055,0
1273,-2.948318581781851,-2.6712391712934185,0
1274,-2.9696207473488805,-3.0112093100122417,0
1275,-2.7846926073372464,-2.7925086273182034,0
1276,-2.2790652023461524,-2.271749674435988,0
1277,-1.4654655745128937,-1.4697300093541938,0
1278,-0.5312047689641508,-0.576427890265731,0
1279,0.26376726444063986,0.1974554463479342,0
1280,1.0626324777030132,0.8883963432838548,0
1281,1.414639733307308,1.4743544305571679,0
1282,1.5933331614168647,1.469634644915979,0
1283,1.5276132192085925,1.5596568333318446,0
1284,1.2331782585595457,1.1289442403190106,0
1285,0.7530878971921185,0.758359466331455,0
1286,0.3507181482667864,0.3246491583321277,0
1287,-0.1475820160650202,-0.4232372021151714,0
1288,-0.5561294058225925,-0.6284325397498347,0
1289,-0.7821754736868363,-0.7491569466556549,0
1290,-0.8394481717695732,-0.8427656988743844,0
1291,-0.7160290458857654,-0.5674485488113681,0
1292,-0.4912826806932828,-0.3332477118687258,0
1293,-0.33904597435454625,-0.22206387093316732,0
1294,-0.0961644858793512,-0.09481674339328013,0
1295,0.1043783344192915,0.03942616640277116,0
1296,0.2759273051587565,0.3654031337629169,0
1297,0.35100508428963456,0.22588537646025442,0
1298,0.2662387534388035,0.31679792936800677,0
1299,0.2762471150165756,0.5546440185378074,0
1300,0.14960829032039283,0.228361404667009,0
1301,0.1507710647177933,-0.0045938364316004815,0
1302,-0.033948025814613814,0.03945249733542878,0
1303,0.01782473736245345,0.0815615802152075,0
1304,-0.04613235570019554,-0.23608826300625774,0
1305,-0.20102983024383209,-0.20725136106657843,0
1306,-0.12202264794785296,-0.05608640569787668,0
1307,-0.021311750221607306,-0.12667492228942856,0
1308,-0.053856751379460235,-0.08345848395790177,0
1309,0.006445080349764893,-0.1025627966256238,0
1310,-0.03397879746776466,0.069148456197664,0
1311,-0.042319284946068625,0.019632086113836336,0
1312,0.042718830440054055,0.0576997908281142,0
1313,-0.058224619653116934,-0.18697245566684675,0
1314,0.1533265898139758,0.07166549364214209,0
1315,0.021823996998240974,0.12255146352552461,0
1316,0.022222484177197906,0.11969184152738445,0
1317,-0.06847034708494901,0.05477389179286991,0
1318,-0.0047795916495075716,-0.029530943796888726,0
1319,0.01977013095438486,0.10425309305846917,0
1320,0.012903973817483703,-0.03236153128880198,0
1321,0.022361070972244764,0.11791843742439663,0
1322,0.01652583719619605,-0.021223950606947234,0
1323,0.10914620622430103,0.19071106156894438,0
1324,0.006241253324336649,-0.17369885811493405,0
1325,0.06740091719741786,-0.06760785229002994,0
1326,0.02640671242666817,-0.0217193117389509,0
1327,-0.09412676586191568,0.00653819882394185,0
1328,-0.12484146241593484,0.025600082602725838,0
1329,-0.011162942074815252,0.06872820170165143,0
1330,0.021475633943586564,-0.012329900626118823,0
1331,-0.0347050921313535,-0.017884383563060383,0
1332,-0.0879552183854608,0.08869119373611056,0
1333,0.0283755045146215,-0.027733117884872475,0
1334,-0.017065007282412597,-0.0036063908732605955,0
1335,0.041354327783074754,-0.13881419318997254,0
1336,-0.029940638023003677,0.017220438406937877,0
1337,0.04236815317985387,0.008128797758969792,0
1338,0.009794352583552227,-0.12847996699966502,0
1339,-0.07227122774612288,-0.07717734415217785,0
1340,-0.06391478562681378,0.24071159514266305,0
1341,-0.07622330812637679,-0.13559399024365984,0
1342,0.04815905626422708,-0.17512583827207326,0
1343,-0.04287766235647789,-0.04066247305512061,0
1344,0.11562851262878332,0.014790910148069629,0
1345,0.04486659963840461,0.014688445021030679,0
1346,0.04293253621824018,-0.14838862333354416,0
1347,-0.001245962832676217,-0.04361725613209473,0
1348,-0.036698775709499386,0.02457042219759982,0
1349,0.08631666384548932,0.11922630986144514,0
1350,-0.014932989958350159,0.02776370012270582,0
1351,0.034116507388765475,-0.12338465783130279,0
1352,-0.0021203916466886654,-0.15048359904536168,0
1353,0.01185918910187087,-0.3296040627239791,0
1354,-0.0561989101581834,-0.07506520265472419,0
1355,-0.03999660081672164,-0.03744977008024437,0
1356,0.035166472117484686,0.18186942551215898,0
1357,-0.013860133113358715,0.043310193190302305,0
1358,-0.010409018687312054,-0.03187358194183561,0
1359,0.06481643099801701,-0.06571867828081389,0
1360,0.02459764747650965,-0.08563956077473353,0
1361,-0.06597038546111852,-0.010194970058678606,0
1362,0.023674691085767245,-0.14776617363858321,0
1363,-0.03913325169815464,0.051710617312816974,0
1364,-0.1175740396547571,-0.25343491407450375,0
1365,0.021826175788664894,-0.01662717307976099,0
1366,0.04451572019446648,0.022306859145228012,0
1367,-0.09657862031588495,0.042244190586517044,0
1368,0.019477348965001764,-0.03721097868038202,0
1369,0.055150010759728946,0.010449061843897373,0
1370,-0.04007411796698855,-0.2031062691214816,0
1371,-0.02922272448426886,0.09987416108503008,0
1372,0.03627830527226869,-0.07158918814523837,0
1373,0.027382317961285027,0.05190997424083819,0
1374,-0.0019074839338187946,0.00619273221074108,0
1375,0.17704605917497546,0.22809361571199768,1
1376,0.3689211304761213,0.30480199916999146,1
1377,1.1927302006984224,0.3838553266828773,1
1378,2.5254731085854094,0.6306717255228347,1
1379,4.072669429259152,1.2690762599978327,1
1380,5.722775515808133,1.4394412163764085,1
1381,6.866007465125713,2.170910037681194,1
1382,6.546824697918299,2.9693187646138814,1
1383,5.001462773243787,3.7751325424771394,1
1384,2.2986078424264957,4.574732456225069,1
1385,-0.5542532098611789,5.471717909970232,1
1386,-2.605670133369343,6.254743958906516,1
1387,-2.978795370443289,6.689160662582961,1
1388,-1.938038892949253,6.910916838152168,1
1389,-0.3197899392272687,6.921448572952834,1
1390,1.147979997990521,6.467179151285895,1
1391,1.5619497210921824,5.519829974953847,1
1392,1.100589706575076,4.261164118377631,1
1393,0.18656776474209044,3.032946121918975,1
1394,-0.7169450039663378,1.4362309235443356,1
1395,-0.8249562664210849,-0.055819746550945626,1
1396,-0.40667852957407385,-1.0938155609195372,1
1397,-0.0959231502889233,-2.0820804829343116,1
1398,0.31740011516643574,-2.9692497797584525,1
1399,0.29530192299006897,-3.175062514656766,1
1400,0.09257371136102979,-3.0803801803546023,1
1401,0.026794372009957726,-2.404638340329641,1
1402,-0.18847442573423023,-1.4681365542356446,1
1403,-0.06852967425736625,-0.7041403906351998,1
1404,0.024594356992555817,0.3794644083428599,1
1405,-0.009920851194998321,0.8017188167235078,1
1406,-0.03522774096123192,1.3784221746049268,1
1407,0.07732551318634218,1.571561411084782,1
1408,0.02595543698368894,1.3883115618601236,1
1409,-0.02599523459704376,1.1331534446063247,1
1410,-0.07341872036181323,0.8138247208808139,1
1411,0.043703783848079145,0.3231856903371571,1
1412,0.006083594048294951,-0.14526678361778833,1
1413,-0.050822762985809615,-0.49258023770911785,1
1414,-0.12064989210299258,-0.6952431875324241,1
1415,0.008778133735521979,-0.8123689389458044,1
1416,-0.0031160383819982857,-0.8127899704153406,1
1417,-0.011016653294503237,-0.40578781405931896,1
1418,0.010813942876569237,-0.36941433680909186,1
1419,0.0194222684375038,-0.0764989128054496,1
1420,-0.0036529064768931895,0.04622882883712579,1
1421,0.026896984801718544,0.42490425289419864,1
1422,0.0022840031873809113,0.2504147640741017,1
1423,0.00651827120179133,0.19251025017166598,1
1424,0.017521601194759918,0.27312494793598635,1
1425,0.17917648961235727,0.270325213387046,0
1426,0.07458200164159548,0.10259816933221101,0
1427,0.07642706359249381,0.11928899964833715,0
1428,-0.028170119070437517,0.007247585503556642,0
1429,-0.13644252503944318,-0.18104963927169107,0
1430,-0.2221673842402126,-0.1123319613370268,0
1431,-0.06394664871540388,-0.20201466613994135,0
1432,-0.060636543377818444,-0.3380991873565079,0
1433,-0.11331199468705412,-0.09910484772434162,0
1434,0.03805144184365101,-0.040858901634608105,0
1435,0.05922848509969687,-0.1104220676572548,0
1436,-0.04163102496110935,-0.11234944767347939,0
1437,0.030827391210410702,0.12968366654633334,0
1438,0.0031515319553518314,-0.027125905354316117,0
1439,0.09669142351720968,0.005562241429999911,0
1440,0.06762659683549443,-0.23831352966978928,0
1441,-0.0679146990967955,0.09420625661843694,0
1442,0.011798689462344929,0.05199267403892269,0
1443,-0.007795681514686171,0.18818542629625135,0
1444,-0.0548915823877931,0.11535815832552102,0
1445,0.016754059786521357,-0.11553983368271988,0
1446,0.05642335085533388,-0.15495827542963098,0
1447,-0.03996225182081882,-0.0027605573045071776,0
1448,0.032601576952522034,-0.13094527678964665,0
1449,-0.012751853919191912,-0.03486548813369354,0
1450,0.12988092418422179,-0.05281448475903215,0
1451,0.020681126864649603,-0.07439993947321867,0
1452,0.026435936844587855,-0.1697200195434735,0
1453,0.0028993720453236436,-0.04142894767754156,0
1454,-0.0974627124592698,0.05452154912620239,0
1455,0.00033851632701754696,-0.13491599823444494,0
1456,0.06243627438444724,-0.014027262855599399,0
1457,0.029496242607498946,-0.03275562396602022,0
1458,0.11682021694675028,0.004936407506028659,0
1459,0.1055351081679965,0.10202617917011146,0
1460,-0.010015428765942762,-0.2875651907720895,0
1461,-0.0019738653403094863,-0.07108396925001183,0
1462,-0.019195619261085383,0.07046764493964333,0
1463,-0.13755733616609955,-0.06291073211540298,0
1464,0.0760660812294256,0.15629114008136635,0
1465,-0.06166000259258691,-0.03494019032496909,0
1466,0.007468078933045054,-0.055606855267318955,0
1467,-0.07870442661406589,-0.02113670581452308,0
1468,0.010770261208238605,0.09605638051389193,0
1469,-0.035971723380899816,-0.003995250573938311,0
1470,0.012720213032206601,0.047038647545502486,0
1471,-0.07210902350932658,0.018312585194768246,0
1472,-0.02731804147731888,0.04237591363547971,0
1473,-0.1067249047311629,-0.07797009997378652,0
1474,-0.0020477803725975465,-0.04041247795019802,0
1475,0.022374580120249385,0.049568664837054764,0
1476,0.021065328252030988,0.03524524326517436,0
1477,0.021503947310786187,0.05858889419607596,0
1478,-0.09106249945480856,-0.11228468032553175,0
1479,0.0564873971402716,-0.029082308303294134,0
1480,0.02584443073872398,-0.1404894739473311,0
1481,-0.01714844260594905,-0.09691696707396714,0
1482,-0.006029197510502769,0.21406657792092768,0
1483,0.04037807974029275,0.0231104349878735,0
1484,-0.04279371516532247,-0.00936196694261864,0
1485,-0.08380229493413925,-0.024205184053266507,0
1486,-0.04162294417125117,0.10107428496304587,0
1487,0.11094688404870258,-0.0791486622609866,0
1488,-0.007884543815804548,-0.13429058049965403,0
1489,-0.047330502992309904,0.07483447425279713,0
1490,-0.031641923196157,-0.12381279015523644,0
1491,-0.08581187456485365,0.031664458285915416,0
1492,0.03972188691680797,0.06919366629784005,0
1493,-0.032423196890781776,0.029394020812496764,0
1494,-0.07621213892332539,-0.20428062455943102,0
1495,-0.029152653817364385,-0.20341635623553983,0
1496,0.045715630965099924,0.012045693211103069,0
1497,0.0386089603164463,-0.12546088931054636,0
1498,0.0007902136974564421,0.015262267482883694,0
1499,0.0355878556771826,0.139206953029651,0
1500,0.07650607907236007,-0.04746244132169307,0
1501,0.2387185575966545,0.19298255970060677,0
1502,0.4050374604536414,0.4120140841284807,0
1503,0.5470089303200675,0.49309660662552324,0
1504,0.899952393522989,0.9028865669763936,0
1505,1.4213092504550713,1.506564997299824,0
1506,2.086260306157159,1.9822478384231266,0
1507,2.7559189051461757,2.9070612319616296,0
1508,3.576819211506936,3.633884291539977,0
1509,4.4830134855342525,4.480884620849202,0
1510,5.4512493652366745,5.491060901341702,0
1511,6.046500313715945,6.023766886706827,0
1512,6.577832814329694,6.536425310772352,0
1513,6.988965295236806,7.01760699826634,0
1514,6.9881725104882735,7.2142198449135995,0
1515,6.433005124860459,6.491220847168,0
1516,5.65887966771621,5.583586718753993,0
1517,4.522166244146948,4.54121516752676,0
1518,3.1813268764098703,3.1675925268157132,0
1519,1.6666442418745464,1.7810450957784012,0
1520,0.21269594641614975,0.17206600453783705,0
1521,-1.0331370599470457,-1.084847840050011,0
1522,-2.1589267460856756,-2.1811803025091563,0
1523,-2.825575386667947,-2.6452340437891717,0
1524,-3.0292179179418026,-3.0168612080084456,0
1525,-2.898448154621988,-2.7815480162245176,0
1526,-2.321833194423556,-2.3414655194306255,0
1527,-1.698251672856106,-1.7773978114420874,0
1528,-0.7861385063545095,-0.8413400277571355,0
1529,0.11211482061647399,-0.03352631525643372,0
1530,0.8606170928073357,0.8234083416353333,0
1531,1.443269997204312,1.4046540310102034,0
1532,1.5393839398728804,1.536226828839793,0
1533,1.5319046379215957,1.5441382676981925,0
1534,1.2783810221984373,1.3318156365123401,0
1535,0.8336277541445258,1.0613905036013844,0
1536,0.4304795420234461,0.27825476854887254,0
1537,-0.03742426677605998,0.054089423760852996,0
1538,-0.45423059571383645,-0.35703788464622854,0
1539,-0.688851322736799,-0.7575909283952613,0
1540,-0.8563656045209939,-0.7167087766273972,0
1541,-0.73606685468985,-0.8607210730504821,0
1542,-0.6524621460045602,-0.5379680842927129,0
1543,-0.3898627145531167,-0.5318340883469264,0
1544,-0.02146474371112113,0.002495796315732185,0
1545,0.11527608361520383,0.004974387382608567,0
1546,0.20824047271907045,0.1528609237003239,0
1547,0.23344454660080877,0.4085522590536249,0
1548,0.27799085674490154,0.4194096889260735,0
1549,0.3003586428470974,0.16166885303149256,0
1550,0.22241799411410154,0.010640708000335897,0
1551,0.17716707436275,-0.009739588356392687,0
1552,-0.011679172032680405,-0.21398579489911362,0
1553,-0.0569292956319781,-0.003638421379562197,0
1554,-0.20769712719124617,-0.24276966757433388,0
1555,-0.0680364621892105,0.041573071565326275,0
1556,-0.07869560872854738,-0.31017653364480957,0
1557,-0.09726706712025572,-0.029958643917456652,0
1558,-0.06238486408157252,-0.002044544960797673,0
1559,-0.06321687288899519,-0.03503049564450066,0
1560,-0.008102991448463168,0.03231095372480115,0
1561,0.07542363360573409,0.008688716309639282,0
1562,0.03923892961539333,0.06197317150477974,0
1563,0.044953665525016485,0.03446800088939608,0
1564,0.04165430269761983,0.33459862722023437,0
1565,0.03007002061415169,0.042709230259773245,0
1566,0.15623899501663116,-0.005666946816465345,0
1567,-0.024434903768070632,0.06158354268409729,0
1568,-0.05553457076773822,-0.14326503457249792,0
1569,0.06794857353022636,0.02459036484116854,0
1570,0.04297542535185656,-0.20063300822755117,0
1571,-0.006836757869196353,-0.027272780026450522,0
1572,-0.030604944962406996,0.014681765085373026,0
1573,-0.09277338935417706,0.111705125705441,0
1574,0.05278259913514725,-0.03487880706716767,0
1575,-0.03453115295313914,0.16390536499885341,0
1576,-0.009745747075280427,-0.08372506915260892,0
1577,-0.02034325878939966,-0.08362450602410755,0
1578,0.025332147329214946,0.1460783003413461,0
1579,-0.028479682712336876,-0.05161364729196442,0
1580,0.013179818128158318,-0.11108931202310811,0
1581,0.010986526628764285,-0.04208268139511824,0
1582,0.002389459506144908,0.14267283982840334,0
1583,-0.025306954415088706,-0.05377054518744163,0
1584,0.05554437427263263,-0.08688896824523566,0
1585,-0.05383938682108426,-0.06140047287461536,0
1586,0.03131912406772602,-0.21949803861416214,0
1587,0.03988221030228246,-0.10527827007944938,0
1588,-0.003909487115279209,0.025827580855370513,0
1589,-0.02214331682116361,0.08360712015266289,0
1590,0.04650605488592531,0.07890135865627396,0
1591,-0.05966831773728033,-0.17473297706574759,0
1592,0.01726713502620987,-0.15932478620115928,0
1593,-0.020642111994924266,0.014067155210317435,0
1594,-0.03294337055221732,0.10623379528582923,0
1595,-0.012996735251244793,0.03754802408670941,0
1596,-0.058985707946382984,0.05640460700865405,0
1597,0.04021680632999352,-0.019866905590830486,0
1598,-0.002856235690523663,0.010174487704871832,0
1599,-0.03512177837208116,-0.004617959813610652,0
1600,0.0030488185718604054,-0.020152420385960938,0
1601,0.028510184662262468,0.09504391161348315,0
1602,-0.061539577875388426,-0.054120947866856436,0
1603,0.08304499608377869,-0.12454646840755111,0
1604,0.0020447169957020623,0.08287529292011891,0
1605,0.038097381865427424,-0.11200063710127243,0
1606,0.024440710386714994,0.1473567540548324,0
1607,-0.10583480411202505,-0.06301177922383863,0
1608,0.06478785976654082,0.008374481385153098,0
1609,0.05896470010005789,0.0804552744926073,0
1610,-0.01676651126784007,-0.07642953240576943,0
1611,-0.03629827233160649,0.0840322512307934,0
1612,-0.02239778379622392,-0.08932586279835042,0
1613,-0.07619759661161939,-0.12282936189769465,0
1614,0.03255133959424675,0.021278055411022758,0
1615,0.047185639042281104,0.06819063360071675,0
1616,-0.022135083737169638,-0.0868557833700943,0
1617,0.02750201363599734,-0.0045000132762259715,0
1618,-0.002580960854991164,-0.0626268770075669,0
1619,0.05926218812315977,-0.030658922094983117,0
1620,-0.05008824336948497,0.00019891324479114373,0
1621,0.01648728963820066,-0.01268352579074021,0
1622,-0.0832573371382877,-0.029835092353675572,0
1623,0.06977334926472833,-0.054966640452921045,0
1624,0.06230292174233527,0.004614850872006974,0
1625,0.09584666250833637,0.08123161449562372,0
1626,0.20104079846137723,0.039656235468602086,0
1627,0.36443059297536434,0.37010027352186126,0
1628,0.5637661836617622,0.6438597993972017,0
1629,0.9093206210023826,0.8242731944143943,0
1630,1.3718131662338406,1.3758628192238496,0
1631,1.8571966459242462,1.9217080926058803,0
1632,2.6575116851992044,2.624259757727187,0
1633,3.5099982791921343,3.5982856943008334,0
1634,4.375661302042494,4.429684297738188,0
1635,5.156250980198184,5.193166340024929,0
1636,6.024745676544713,5.9558563620966956,0
1637,6.6189412149196105,6.606562936557754,0
1638,6.920336293520517,6.659624277588122,0
1639,6.924299910785591,6.932308638485743,0
1640,6.604458311510531,6.684307058158593,0
1641,5.749710068652927,5.756334276213009,0
1642,4.703292618994249,4.628788844136422,0
1643,3.4813468706751673,3.435007663206648,0
1644,1.9664267172905672,2.0031333055927343,0
1645,0.45124458479432594,0.32393663269325096,0
1646,-0.8227921213230496,-0.9859793596909144,0
1647,-2.039746016364786,-2.033647403788791,0
1648,-2.7225801447550078,-2.8085669111209666,0
1649,-3.082069401404196,-3.097626792078125,0
1650,-2.903078376430005,-2.7179209864518423,0
1651,-2.4927944288996913,-2.296828903346396,0
1652,-1.78694011619596,-1.7229741381216728,0
1653,-0.8943709832320615,-0.6197016515147833,0
1654,0.00719000637582471,-0.14609168432390413,0
1655,0.7656752440782262,0.7164778830119001,0
1656,1.3500434985349454,1.3450128087583384,0
1657,1.4826198898806007,1.402283555941683,0
1658,1.5628471755319382,1.4323171635269945,0
1659,1.3703022163530236,1.2355136254145436,0
1660,0.98946381761016,1.0615909270450639,0
1661,0.5687851462608225,0.48607838134427683,0
1662,0.0502709136889755,0.32583599159138965,0
1663,-0.39319047471588525,-0.4186109986204183,0
1664,-0.661892359476831,-0.8557709253594343,0
1665,-0.8341699369260305,-0.7175299521741578,0
1666,-0.6694484625740031,-0.7216168288442275,0
1667,-0.6191760383136875,-0.5232044439559093,0
1668,-0.34180985556841037,-0.38697615646242,0
1669,-0.15345178710399127,-0.010905805899000837,0
1670,0.0733783658085558,0.02137667537498228,0
1671,0.2975789746621583,0.3435229928900144,0
1672,0.3023765391160444,0.4438738231537489,0
1673,0.36157376590465046,0.45885255847220097,0
1674,0.25213695908365247,0.1659913672684996,0
1675,0.20458190631460924,0.35215831685723153,0
1676,0.10289894576856766,0.3164162671832605,0
1677,0.09790274696591017,0.077196340918773,0
1678,-0.032021190795075545,0.007018006292801686,0
1679,0.05642662616977434,-0.30934084047671784,0
1680,-0.1566506252890152,-0.13403239969488562,0
1681,-0.12138755096638473,-0.11430705464632455,0
1682,-0.03630164683029361,-0.12155110363665736,0
1683,-0.11532711649159225,-0.08000863397310631,0
1684,-0.008407845292198771,-0.1216471224249762,0
1685,0.029624220389506007,-0.07790564300472194,0
1686,0.03611068307675829,-0.06234700352906619,0
1687,0.045570167580535934,-0.09970902393184677,0
1688,0.0683849708495656,0.11552784751539696,0
1689,0.034117178607873555,0.08774203447020378,0
1690,0.0648881911097487,0.11372793072144353,0
1691,-0.07751263770148015,-0.04195551531050162,0
1692,0.07622627751792724,-0.07814461130889659,0
1693,-0.04848717332254562,0.09494475717064466,0
1694,0.04967969388446493,-0.005584806213270803,0
1695,-0.003550361928334922,0.009865926262673455,0
1696,0.027401442718058215,-0.12600188289678158,0
1697,-0.06245944966012029,0.15239642544296414,0
1698,0.020186169791227702,-0.031403799083325114,0
1699,0.11153604429644182,-0.02256685377114769,0
1700,0.04278719385752463,0.07952429580220807,0
1701,-0.000997080251846911,0.06575946579647393,0
1702,-0.030100612967131984,0.032505674418366284,0
1703,-0.05114124402046302,-0.0006407131468937492,0
1704,0.0035488541989986727,-0.1251930714491973,0
1705,-0.039484572904392064,0.05439273112634824,0
1706,-0.08354926651875635,0.12800694828647657,0
1707,-0.018136997716906578,0.16937818928206583,0
1708,0.030863609390366045,-0.04533584803891743,0
1709,-0.08612706400871949,-0.012706678500903196,0
1710,-0.0335064002035089,0.10821089090968851,0
1711,0.029565336662336697,-0.0852614270364291,0
1712,-0.05506257338979645,0.07803108377797131,0
1713,0.06923766170261833,-0.22275772292668736,0
1714,0.020405108730727397,-0.014525792731283226,0
1715,-0.04046120979434515,-0.05894240600832652,0
1716,-0.05945904875716993,-0.13452060045634293,0
1717,0.028899909815220868,-0.04387751306303456,0
1718,0.021012381873747724,0.04094279381178986,0
1719,0.07956214792728929,-0.015088842155521852,0
1720,-0.06087381645985879,-0.013295570712176413,0
1721,0.024377155386399892,0.002929572993862976,0
1722,-0.08001292779205753,0.02707449722288036,0
1723,0.030922538286266444,-0.16276658391398496,0
1724,-0.10021394529245053,-0.11157683405682947,0
1725,-0.04938068607012833,0.09461694311672968,0
1726,-0.01587445410196451,-0.012743017719497233,0
1727,-0.06078492498009839,0.08855567471601296,0
1728,-0.03542716321377634,-0.036126778967853324,0
1729,-0.005487580191176291,-0.026292935546985686,0
1730,-0.003123049004199098,-0.03961975906088653,0
1731,-0.05843236855593476,0.018905122820636024,0
1732,-0.06032618459279093,-0.314905845519767,0
1733,0.04729273998087249,-0.06482673095259699,0
1734,-0.04894819787071639,-0.01240655837439821,0
1735,0.056398531671896596,-0.015456740645353474,0
1736,0.06451199925945411,-0.002481250585000153,0
1737,-0.051166243702927064,0.003684299090332085,0
1738,-0.0669626401630877,-0.00913439229631672,0
1739,-0.0004110335545526546,0.11779798323288082,0
1740,-0.08766254980050232,-0.06672304934847512,0
1741,0.02910832948438212,0.21198517477036272,0
1742,-0.0037061279532382453,-0.09020834683781749,0
1743,0.009022762633634477,-0.07380453908042701,0
1744,-0.013433262191314922,0.01003556939425212,0
1745,0.05179309380929851,-0.07785276600541732,0
1746,0.011664988619343957,-0.07918427725587171,0
1747,-0.017146269668300282,0.0970024709686755,0
1748,0.06781380623362813,-0.01712352040395787,0
1749,0.02419410705864002,0.009933005976173383,0
1750,0.09933710120214106,0.097413605906653,0
1751,0.15154724494721275,0.09265909260549944,0
1752,0.2521463296979348,0.47456312573504283,0
1753,0.5813751027652059,0.4216817947345063,0
1754,0.8241746969598449,0.7755380399930901,0
1755,1.2963358689196265,1.2997776961077205,0
1756,1.7792338521682285,1.8937790261249747,0
1757,2.671143072248338,2.762620413873927,0
1758,3.4424401704564342,3.3064409055522304,0
1759,4.301968814430899,4.389452572610797,0
1760,5.096374065198804,5.070021846281222,0
1761,5.888841015602578,6.185223897694564,0
1762,6.44718933393995,6.483284170821121,0
1763,6.764263962751453,7.141286754605658,0
1764,6.88484688959761,7.0956012989324915,0
1765,6.589616038429195,6.58171572683376,0
1766,5.835153876443365,5.8609109620554,0
1767,4.860506331839232,4.83264781297444,0
1768,3.5039246429725805,3.571269236511331,0
1769,2.1023031943676913,2.2620969550585506,0
1770,0.6950895901166247,0.7090187794101898,0
1771,-0.7038765332593362,-0.7390423942224031,0
1772,-1.8722326123781416,-1.8234847084418035,0
1773,-2.611156757370141,-2.8375043382606036,0
1774,-2.9864629595316687,-2.8868706661164527,0
1775,-2.985595997680586,-3.018532275787995,0
1776,-2.4450212203780937,-2.4711537232993854,0
1777,-1.8830633449327538,-1.8437635517335218,0
1778,-1.0946545650270987,-0.9077469249018497,0
1779,-0.19807581705833335,-0.13668202212762381,0
1780,0.6584735362546351,0.5744668144298999,0
1781,1.3126962429007936,1.1946005010226535,0
1782,1.5120209266848568,1.57742157059828,0
1783,1.5532858732658101,1.540580601495147,0
1784,1.433543020392911,1.3994998459426553,0
1785,1.139870725263624,0.8705990577736452,0
1786,0.5779034632291898,0.5116831614601576,0
1787,0.16552729623655665,0.16420563653583223,0
1788,-0.3671734702118249,-0.26909356102565407,0
1789,-0.5066686850918425,-0.7106076083361719,0
1790,-0.8535351165911789,-0.8571240329223689,0
1791,-0.7504376272803766,-0.8090934729545718,0
1792,-0.60410866589702,-0.6684868268301979,0
1793,-0.44091037964963004,-0.4072991108618844,0
1794,-0.19879613637011914,-0.2685338556583938,0
1795,-0.0010678787343194277,0.10941110177548544,0
1796,0.22874788251194877,0.24427747974382935,0
1797,0.28388440934780335,0.25882956439878213,0
1798,0.3641311144248156,0.30022882435550546,0
1799,0.2640755334506746,0.08331359057268886,0
1800,0.24947493009902635,0.13290273612108977,0
1801,0.15218264618233462,0.11318771460335161,0
1802,0.04136078867403015,-0.09541891808396587,0
1803,0.019868094775044087,-0.05440988557592006,0
1804,-0.0859471222513184,-0.058168213254817594,0
1805,-0.11019719050291102,-0.15361842743620835,0
1806,-0.07540474926698978,-0.19304877979465856,0
1807,-0.0754514380770877,-0.10885804049237846,0
1808,0.024981274929808818,-0.047107729844061697,0
1809,-0.09179206002619947,-0.09695029157366866,0
1810,-0.019784595745589176,-0.06640140524787416,0
1811,0.03257424384865721,-0.057660358104204515,0
1812,0.04065052639063536,-0.0793294258399006,0
1813,0.015460673101455269,-0.09074451484374942,0
1814,-0.023038331551667318,-0.015663221317749616,0
1815,-0.09228454774743511,-0.017697593950120424,0
1816,-0.014906546240018359,0.01723042414044581,0
1817,-0.02952482028342035,0.11644828094797041,0
1818,-0.02829915880320443,0.04678562663190732,0
1819,-0.07220715262864534,0.018157606354864582,0
1820,-0.03214566147152699,0.11441990196342551,0
1821,-0.009032137379811105,-0.029346624196025208,0
1822,0.03845181731890472,0.006259116238388731,0
1823,0.008866141114321083,0.14646802188753252,0
1824,-0.04384798506212233,0.04180557966203706,0
1825,-0.021169824229419442,-0.18544817412200618,0
1826,0.016176306684857575,0.04101730227968102,0
1827,-0.01568346933990164,0.07253563518762914,0
1828,-0.07326148311076017,0.040000985725606716,0
1829,-0.09794298232349494,0.2234150198242507,0
1830,0.07207606163669408,-0.01839993707277395,0
1831,0.013000978450646941,0.10225314903925567,0
1832,-0.049619198300928744,0.14941549816137564,0
1833,-0.052228971918582785,-0.04743766811247894,0
1834,-0.0906933507747199,0.18550853546440163,0
1835,0.030452374788154345,0.06530497852472775,0
1836,-0.015127997614343674,-0.10182320015198477,0
1837,0.04099714832124306,-0.03038048359786709,0
1838,0.008559151961567826,0.02963752345849871,0
1839,0.0029306406558263646,-0.024833300582190913,0
1840,-0.05094382572536847,0.12426492107566456,0
1841,-0.04117352804447866,-0.0975596434140642,0
1842,-0.023484727912449332,-0.07066785727671127,0
1843,-0.04172316355964848,0.21312963875600074,0
1844,-0.04226168341158858,0.13552757337875196,0
1845,0.00841075261964252,-0.0024316589232617793,0
1846,0.024440645370391166,-0.1418040920708578,0
1847,0.0035560616769633128,-0.1965987070633049,0
1848,0.047825133580846654,0.07667978771224628,0
1849,-0.010120621762879633,0.0507107891480696,0
1850,-0.014984195239124181,-0.0774383574647194,0
1851,0.07105280189975982,0.04817470144971966,0
1852,0.002115013557393643,-0.03623894117268708,0
1853,0.07519029036142671,0.03756508189412135,0
1854,-0.12970436395552618,-0.0002752478113146035,0
1855,0.009561710275207936,0.03989378497973402,0
1856,0.038027661618979774,-0.008640556497134981,0
1857,0.051825489319850856,0.013881987771174773,0
1858,0.047646917744797276,-0.023739799285230942,0
1859,0.006575129604761052,0.04651353995682534,0
1860,0.03139944837279605,-0.03777157424169828,0
1861,-0.03333631848055189,-0.008795083391579497,0
1862,-0.07635643217558297,-0.06021191956498297,0
1863,0.01941465154251712,0.057722969369998225,0
1864,-0.08587688742528302,-0.23761838642174132,0
1865,0.06318098656725823,-0.14118958264340367,0
1866,-0.009981825564241473,-0.045818750236599065,0
1867,0.08815390558904489,0.0011969249447416797,0
1868,-0.03183747483005979,-0.08345472661783028,0
1869,0.0062429949574403995,0.13304505724745977,0
1870,-0.013394153414988527,0.027468991540605364,0
1871,-0.023384358001776424,0.005811767168001451,0
1872,-0.13049343699275265,-0.17126047942936456,0
1873,0.0010260035276791436,-0.03433260156441945,0
1874,0.03633682690817447,0.00450245718780326,0
1875,0.13123407833782186,-0.004357094106389341,0
1876,0.17975858435643244,0.17241291967183892,0
1877,0.24674440115682283,0.19774018588996983,0
1878,0.4875342367542717,0.7529457799541162,0
1879,0.7478556538128202,0.8777977082603162,0
1880,1.3043783585685644,1.2618097235112624,0
1881,1.8120728635070775,1.852745658462514,0
1882,2.4837050069222504,2.404318787353605,0
1883,3.3609754482815606,3.217972993228539,0
1884,4.101724730675218,4.175436266935888,0
1885,4.958535630504105,4.9788984719919585,0
1886,5.711444854605082,6.046348094065083,0
1887,6.46211122464548,6.297672914546362,0
1888,6.852773329742781,6.81826290306455,0
1889,6.986631665263816,6.900637417756464,0
1890,6.663547030686213,6.705924894636508,0
1891,6.016248474636507,5.9138833227631125,0
1892,5.069998367721386,5.049625085194461,0
1893,3.705881459066053,3.6460036348468057,0
1894,2.357343182745117,2.1423308936962746,0
1895,0.8827550629007924,0.9454497588020041,0
1896,-0.6122285104207429,-0.3898442036363834,0
1897,-1.7283347066484052,-1.7985436324941526,0
1898,-2.6481286653064453,-2.863642325464778,0
1899,-3.0008683801296643,-3.007930757031911,0
1900,-2.9436440965647566,-2.978670760556382,0
1901,-2.714555269122618,-2.7036326027240087,0
1902,-2.0639778546499685,-1.9033183595404461,0
1903,-1.0967679981574685,-0.8584730685590265,0
1904,-0.21863591409203453,-0.25472332165808353,0
1905,0.5653007404894793,0.4666229901336336,0
1906,1.236942101671571,1.0591207037097372,0
1907,1.5323482280709215,1.6009488238477103,0
1908,1.5891783373132264,1.4440080082418671,0
1909,1.4800139654143314,1.4714014570548286,0
1910,1.0484183853206028,1.1000412042620424,0
1911,0.6144469322203987,0.7438577551221635,0
1912,0.1772603298115687,0.24264035932870298,0
1913,-0.1767475133958204,-0.15085258967652757,0
1914,-0.6189479914233722,-0.65244609063612,0
1915,-0.7649396150793039,-0.7415347978334569,0
1916,-0.6886663967007661,-0.7622759294997639,0
1917,-0.6957592940247703,-0.6779241136023111,0
1918,-0.4155483979908395,-0.5004038324365535,0
1919,-0.3169860386479034,-0.28496111219463127,0
1920,0.04841935097778155,0.002226275711572443,0
1921,0.16939223119030927,0.07598332016515377,0
1922,0.32187918522128633,0.3486156754332234,0
1923,0.38060834871439475,0.45952423482483107,0
1924,0.36132098227027015,0.33732951827524604,0
1925,0.2743399285495105,0.07066971991769011,0
1926,0.17771928599391426,0.19366695913226012,0
1927,0.07301635272982471,0.14339218736539655,0
1928,0.05444374290957926,-0.055252953108335084,0
1929,-0.06677066175146948,-0.20426619928904308,0
1930,-0.08609349645926746,-0.10376028500954312,0
1931,-0.14631926708052392,-0.19232512656716458,0
1932,-0.13942218229891015,-0.10320914091008038,0
1933,-0.05407213576350002,0.02525903232100135,0
1934,-0.006468326403520203,-0.09373004097640103,0
1935,0.02053832500038099,0.06726986275652115,0
1936,0.12324289787353404,-0.15927434206703747,0
1937,-0.06297047050765704,0.05441388578481643,0
1938,0.05428611698312669,-0.12261533474461919,0
1939,0.02955567340587759,-0.10471567623217476,0
1940,-0.04966657486621525,0.0442635783436056,0
1941,0.03769235843343835,-0.16892419857880536,0
1942,0.012221987462423707,-0.13168395474811906,0
1943,-0.006774751046648398,-0.0492441254152779,0
1944,0.07398582097509566,-0.17593117571403122,0
1945,0.00875428818158512,-0.16515774290643484,0
1946,0.032174698660087646,-0.052083590846687726,0
1947,0.09053513385708972,-0.07835069544317506,0
1948,-0.04653745491968148,-0.10284216931112744,0
1949,0.1270506147607453,-0.11241529988764819,0
1950,0.065040922308287,0.1681550876294712,0
1951,0.01789132591779128,0.05736369352012934,0
1952,0.06548288316634035,0.25181001156838356,0
1953,0.10175257146498093,-0.05385695601916404,0
1954,0.0037232012844675994,0.04489377198669176,0
1955,-0.038627110455249046,-0.0073651857710896555,0
1956,-0.026583854413313623,-0.002817640917556006,0
1957,0.025009860014402165,0.23042398269884148,0
1958,-0.025635637432743656,0.07953929934798089,0
1959,-0.0470184265971992,-0.016329931925450937,0
1960,-0.06410363451890912,-0.03136506014184247,0
1961,-0.08153552593949949,0.10901987160708018,0
1962,0.06784668550231643,-0.1415823397687308,0
1963,0.04225475019977424,0.025927034263338148,0
1964,-0.014463482881957843,0.2102295408743414,0
1965,0.026334691799881554,0.14701438322729954,0
1966,-0.012060394884661279,0.0012549034034163478,0
1967,0.07088318388809278,0.025552681422927107,0
1968,-0.009185666436027692,-0.14391419201769967,0
1969,-0.013402248304092056,0.036197290466760276,0
1970,0.02582106159812355,-0.036071085189524,0
1971,-0.06438329857675468,-0.14390512011705703,0
1972,0.06532368172069948,0.1348882878323726,0
1973,-0.015016036375284042,-0.025915698291753754,0
1974,-0.00041304909442746863,-0.0992646179234885,0
1975,-0.035436763267438186,0.08190131826224809,0
1976,0.029844417193442774,-0.0710611952056824,0
1977,0.09608079757997466,-0.0454735062934668,0
1978,0.052010306748617625,0.1240160189773868,0
1979,-0.0029739663553897218,-0.1465383997107964,0
1980,0.042391765462756206,-0.06580739028826417,0
1981,-0.014062983181893102,0.0015996976701651551,0
1982,0.029761142423603927,-0.0034378721767331353,0
1983,-0.004069116808847332,-0.06859211770069647,0
1984,-0.04572537126549997,-0.025505615340013412,0
1985,0.03426147974557136,-0.10934788936216593,0
1986,0.009505785794980019,0.017968882019630417,0
1987,-0.044598305692284394,0.00794658915159885,0
1988,0.03461229896466034,-0.044195684688728455,0
1989,0.004371969180335295,-0.002598334581018616,0
1990,0.10193067972573182,0.0004888097679106586,0
1991,0.08543492474940463,-0.02309924582059092,0
1992,-0.05954289978511293,-0.12008584666325503,0
1993,0.041631286194614966,0.11321430896685997,0
1994,-0.012974346067748221,0.009569888600696434,0
1995,-0.006492031798500223,0.13474547777443519,0
1996,0.05573554509147961,0.07327646823597446,0
1997,0.010368848193848847,-0.04925849134215697,0
1998,0.08278392350004467,-0.027132158509304612,0
1999,0.08007497282963885,0.004034827061809215,0
2000,0.029228244192421503,0.040149023894687885,0
2001,0.1789996831737293,0.0889419356169085,0
2002,0.2005879562447907,0.3642060063251879,0
2003,0.3949504424734585,0.41431433205289153,0
2004,0.7075651512069208,0.8617709966681314,0
2005,1.2165879773903616,1.0296536283741486,0
2006,1.6689667412350249,1.7388249397718878,0
2007,2.412639932054227,2.3686390064942757,0
2008,3.264945090888079,3.2623119205091538,0
2009,4.040858305212888,3.959791689810032,0
2010,4.994792986080859,4.997509276027552,0
2011,5.746918953899301,5.734264380586513,0
2012,6.372679931384709,6.47681945222106,0
2013,6.848082269988797,6.80096691190414,0
2014,6.955821434696444,6.994669155850776,0
2015,6.756618075593857,6.928473243830731,0
2016,6.113541412244102,6.064017923114711,0
2017,5.205929178010771,5.083925603471109,0
2018,4.012075737767729,4.001402837946821,0
2019,2.567191217970499,2.306947384572898,0
2020,1.0367368626771694,0.9270447495472235,0
2021,-0.43196010378542504,-0.4101905055196803,0
2022,-1.7078461588177274,-1.5935069888897468,0
2023,-2.556884203483062,-2.5316141544311024,0
2024,-2.9355622957656013,-2.9776674433926167,0
2025,-2.9659137759752476,-2.990614230418069,0
2026,-2.692001955585641,-2.698078077841182,0
2027,-2.094763858525785,-1.9095884790424649,0
2028,-1.212670548191871,-1.2146673881856762,0
2029,-0.3983680387087281,-0.2680795574510426,0
2030,0.49279884606385643,0.46371806988890324,0
2031,1.1812039822075346,1.0456170288685889,0
2032,1.4798741060558,1.2982974293431642,0
2033,1.6392820188625505,1.4958848893069454,0
2034,1.3974513263324344,1.7654604773929976,0
2035,1.0787144169975673,1.2582172960019309,0
2036,0.6960639842200218,0.7608074031214713,0
2037,0.25315765601290324,0.26591322465245903,0
2038,-0.38312928044610806,-0.08866802691356775,0
2039,-0.5153477161309221,-0.5695106954591596,0
2040,-0.7128978181887188,-0.4997733600541984,0
2041,-0.7804754500218443,-0.8197807683327237,0
2042,-0.6825945913920465,-0.7263082656629485,0
2043,-0.4218607605326787,-0.5407151603677914,0
2044,-0.26704226267254855,-0.2918060093022874,0
2045,-0.050497750134185504,-0.08884003976341168,0
2046,0.11626355021508655,0.1464372390202875,0
2047,0.18141712229048385,0.039767441035533035,0
2048,0.3376019380618208,0.25491112711093006,0
2049,0.3595478081613449,0.3916183921722042,0
2050,0.22684185856741293,0.12578428306382783,0
2051,0.14117259006143903,0.20839738702566335,0
2052,0.0014021363383993346,-0.06348522694150002,0
2053,0.007206917392888507,-0.058787978723283466,0
2054,-0.11755009425129065,-0.09852478556314903,0
2055,-0.061292322004399935,-0.18156422250768062,0
2056,-0.06615313629078207,-0.10059253641716046,0
2057,-0.13330681686720253,-0.0726541603971749,0
2058,-0.15981355519657792,-0.17723911504127898,0
2059,-0.05260568144754374,-0.14486844795749745,0
2060,0.03612883642844013,-0.15972131439666198,0
2061,0.05553457452161881,-0.00858942497282406,0
2062,0.06704612172357488,0.11789410393277094,0
2063,-0.017978776213946925,0.04332261220795031,0
2064,0.02542087901455661,0.01772628812213372,0
2065,-0.07002163026487444,0.10435658323987133,0
2066,0.08531837797544206,0.18439104767189865,0
2067,-0.02280314563833359,0.09463120947492783,0
2068,-0.08327556558251356,0.04571027474452925,0
2069,-0.01654260708421727,-0.2448471548467563,0
2070,-0.02946238425666166,0.09624285317137621,0
2071,-0.04075416172535197,0.04711398401199429,0
2072,0.04573286428050584,0.045699559783715996,0
2073,0.07615475478274596,-0.004115660153617405,0
2074,0.006238573220982504,-0.015253768722478842,0
2075,-0.03145346223097632,-0.012508738292232886,0
2076,-0.019625389956253608,0.026105499684710213,0
2077,0.05275656094007532,0.01589024968209128,0
2078,0.040291578773212475,0.16863880936703718,0
2079,0.045774955744673725,-0.1066974947893554,0
2080,0.0019130328944998443,-0.08081235899286796,0
2081,-0.06506092642592333,-0.03592282813098445,0
2082,-0.030671695708554894,-0.05782200532651885,0
2083,-0.05288644499909223,-0.10835173097697258,0
2084,0.003896432099827857,-0.12477160479789036,0
2085,0.00038535020606232667,0.1286003487008515,0
2086,-0.020383578458117623,0.028833829210331494,0
2087,-0.0491717872606001,-0.17524628424399832,0
2088,-0.05736018498716028,0.0067966522196319075,0
2089,-0.003309560515537149,0.046942693720912906,0
2090,-0.08599991689686035,-0.05056474551234104,0
2091,-0.008521193887652077,-0.007817531438758721,0
2092,-0.07721889321679397,-0.009576175667005339,0
2093,0.04678874358872592,-0.02313291978483012,0
2094,-0.010763500578886,0.13196816734720113,0
2095,0.03606850643264383,0.23071281772035396,0
2096,-0.054012148934890925,0.00642334338466385,0
2097,-0.01213652703374928,-0.015407657894580207,0
2098,-0.016029473308071154,0.22857597919495845,0
2099,0.08318570102878364,-0.21560469548106478,0
2100,0.06378902281318995,-0.11328371458750762,0
2101,0.012539427284664702,0.05195176285862258,0
2102,0.02981195926483528,0.06407255859197104,0
2103,0.023137094053649186,-0.1757536543765164,0
2104,-0.0014195726792532086,0.0520546751139728,0
2105,-0.04794251024268664,0.20269785448104227,0
2106,-0.02324556242319804,-0.1470655129639024,0
2107,0.07487299928151003,-0.0630700155470146,0
2108,-0.019763707627078048,-0.019921879439522866,0
2109,0.03266974835541803,-0.01753113414769744,0
2110,0.012062784529859698,0.03350755119877608,0
2111,0.03002765078942271,-0.1191424872701672,0
2112,-0.012330005162647244,0.003381307626574696,0
2113,0.06764310884507566,-0.11372456396046002,0
2114,-0.023592502464487866,-0.017402744955595406,0
2115,-0.07942993758449968,-0.02334363885569386,0
2116,0.03871892043084673,0.07816582961966953,0
2117,-0.02092813359687456,0.0036912461948424465,0
2118,-0.038412200216599,-0.11199106419201636,0
2119,0.026843895459818513,0.06912559627334273,0
2120,-0.051538373352016116,-0.04605273188213117,0
2121,-0.10048715270805118,0.10237249155600554,0
2122,0.0031400637222111787,0.02568911819548379,0
2123,0.00019466821063538625,-0.10147025411139068,0
2124,-0.010157772389390253,0.008057268873428659,0
2125,0.04479597627942098,-0.06564021203639298,0
2126,0.049249242324974386,0.07483616757576916,0
2127,0.2782406498078484,0.36019810388008217,0
2128,0.4738385154086978,0.39734525998450043,0
2129,0.6755511022825353,0.6666737763028304,0
2130,1.18382954567373,1.1239396409976388,0
2131,1.68108819114746,1.8005379648537643,0
2132,2.238293197346043,2.2427468668182007,0
2133,3.161424991116614,2.995453274788136,0
2134,3.944117333996199,3.863194390239674,0
2135,4.828842125392443,4.797997467368839,0
2136,5.55240654560827,5.583227432409403,0
2137,6.234149299092015,6.321416577110759,0
2138,6.808775354463591,6.887744570585111,0
2139,7.026976996799369,7.009944198317658,0
2140,6.831219267769545,6.616535138953568,0
2141,6.2510115975257765,6.1460074580326856,0
2142,5.269412587069943,5.2824140274943385,0
2143,4.024058425062079,4.108305404309474,0
2144,2.7580944499162534,2.7624237483987906,0
2145,1.2268563170655382,1.2697313737875422,0
2146,-0.19563256685468253,-0.25670036562189863,0
2147,-1.5302594414722501,-1.5091319004086858,0
2148,-2.4990439671504787,-2.4969899117420264,0
2149,-2.9150308256551156,-2.938369393503203,0
2150,-2.9701131340889617,-3.1156715837012277,0
2151,-2.7051232777704746,-2.6156265509832037,0
2152,-2.1945084332786724,-2.0557283830720916,0
2153,-1.3276844494829656,-1.5108810059837483,0
2154,-0.5405108606632387,-0.5022301645832266,0
2155,0.3067315641887367,0.4443453646554374,0
2156,1.0440345542762215,1.048154118877448,0
2157,1.4675013546935647,1.5161450229581328,0
2158,1.5614671322419529,1.6793512934334183,0
2159,1.5040056808469604,1.4887502171247506,0
2160,1.075214869147313,1.0323272889552295,0
2161,0.7505987827972072,0.7096435360839233,0
2162,0.3311607330270485,0.2214407620069554,0
2163,-0.15823209632504695,-0.15808510615930138,0
2164,-0.5540582194335751,-0.4982896823014397,0
2165,-0.735189072190317,-0.8972113276310064,0
2166,-0.8232296296897982,-0.7177226766662023,0
2167,-0.7924430090242612,-0.6825729666427836,0
2168,-0.46764773938729937,-0.5693078925594199,0
2169,-0.2667505313944689,-0.32630154674236866,0
2170,-0.0018673255287231377,0.13406442439259703,0
2171,0.08299115193196233,0.044506436786183656,0
2172,0.2582028351125296,0.20877265065483408,0
2173,0.36179289207646187,0.288352783205666,0
2174,0.39983594901952046,0.12333110345021975,0
2175,0.27386936746810087,0.23491464834064327,0
2176,0.14243377439648075,0.16966418239029168,0
2177,0.007498444384960709,0.05330981857169206,0
2178,-0.059268183309930084,-0.08911171727440424,0
2179,-0.16659443408692576,-0.11414666699867278,0
2180,-0.12390350219771937,0.04814788861590216,0
2181,-0.12053788327689834,-0.0629846770683539,0
2182,-0.010379343807447872,-0.16796520684733102,0
2183,-0.12174209494408991,-0.08768678845493925,0
2184,-0.015042048987456647,-0.14878958941671552,0
2185,0.039248297627133936,0.007158931046571473,0
2186,0.00554264689328514,-0.03598297561883783,0
2187,0.010829776407163115,0.0017482033728351068,0
2188,0.05687246935599372,0.0379291178955703,0
2189,-0.044333795721882355,-0.21330848417838105,0
2190,0.012435686168498456,0.01608224837902948,0
2191,0.004054760146751983,0.040414537957851764,0
2192,0.11779434479782008,0.1581175429767112,0
2193,0.010773869887976639,-0.03770857240164288,0
2194,-0.07062724623294728,0.0010742489237329346,0
2195,-0.09528735462376912,0.1205586721148767,0
2196,-0.024478870537805283,0.03221934750691145,0
2197,0.001793883266465587,-0.08058685122694606,0
2198,-0.01904656003665893,-0.14952485257416404,0
2199,0.033275905287111364,-0.04572729826024125,0
2200,-0.017058006718337078,0.07602800607815853,0
2201,-0.027703569100525263,-0.033853456173983706,0
2202,-0.04668257131318249,0.0035459152542694885,0
2203,-0.006961779540654306,-0.08717259483245984,0
2204,0.048953759081066424,-0.08507221007956091,0
2205,0.021446932120096882,-0.0181289306019913,0
2206,0.01705775614061104,-0.19016947708462753,0
2207,0.03916592249762967,-0.07663370879541963,0
2208,0.020519042904591698,0.013855218159856237,0
2209,-0.03657193387199999,-0.041867388447156303,0
2210,0.08221739595274813,-0.037653310152269276,0
2211,0.024696886023947782,-0.07041465120519547,0
2212,0.04522358415571781,-0.11152582400763844,0
2213,-0.03337396311668204,-0.05965459456423007,0
2214,-0.04912592777337978,-0.026767117607229565,0
2215,-0.007307158933806343,-0.07275932283947058,0
2216,0.023129715341735784,0.2072284412576845,0
2217,0.015021155015585754,0.001466620183407909,0
2218,0.0077246018725609395,-0.1580180275214729,0
2219,-0.02852233390360662,0.09331531447841802,0
2220,-0.0636785894323447,0.035325990132871264,0
2221,-0.11253797263722023,-0.08383007996149652,0
2222,0.07379352758237288,0.09187649019058546,0
2223,0.029008750764836673,0.0640455134949777,0
2224,-0.053674808120145454,-0.009154747771346783,0
2225,0.0655106799804425,0.013057681094744159,0
2226,0.021831742066088327,-0.09144860667742279,0
2227,0.041559392492586326,-0.05184671945234716,0
2228,-0.00035388190965537594,-0.09284895625128865,0
2229,-0.04393483419622948,-0.011444823298228598,0
2230,-0.006801264984565728,0.15270265910494563,0
2231,0.03904661685303134,0.05800433155808057,0
2232,-0.05222489247408625,0.03761461556841382,0
2233,0.002007456013941773,-0.11411145711564581,0
2234,0.012177893145631792,-0.028185591974134512,0
2235,0.03684999235467022,0.09004160486837143,0
2236,-0.043008128962137966,-0.026152604322037608,0
2237,0.029310554525978992,-0.12751372929358157,0
2238,-0.06629838000135838,-0.07034932861877884,0
2239,-0.01400417784102408,-0.12894139525583445,0
2240,0.0893473950318931,0.17157149619470732,0
2241,-0.03681347815906433,0.12319466960054104,0
2242,0.055302500202893276,-0.038777408682165185,0
2243,0.02658844574184419,0.08306085724042388,0
2244,0.025040546805504625,0.14803866281697176,0
2245,-0.03393469975679646,0.002012527249785671,0
2246,0.021145668477962582,0.10114812820866495,0
2247,0.026871986996156973,-0.159446837734741,0
2248,-0.005148914648134632,0.09032426725605656,0
2249,-0.05387202771270895,-0.07350461524307535,0
2250,0.04026327443396224,-0.13583391430195135,0
2251,0.0882943056667636,0.2772988756074571,0
2252,0.22553999940761346,0.04307163655807544,0
2253,0.41938557494819784,0.24153787123378737,0
2254,0.5768807253784418,0.56149523317785,0
2255,1.0113328443749983,1.005485577895725,0
2256,1.5775864761316931,1.4867773888565459,0
2257,2.1204866610990942,2.2339329224919275,0
2258,2.9028760145763637,2.833944537500508,0
2259,3.8506997516617565,3.807368666414469,0
2260,4.687812717439275,4.625723741403213,0
2261,5.460524956081487,5.399974119233847,0
2262,6.257334054713119,6.3503420818854694,0
2263,6.730119048216941,6.838816309855092,0
2264,6.970592554612468,7.0479405751524276,0
2265,6.898184117167216,6.817456242618404,0
2266,6.288297168075257,6.349285276758546,0
2267,5.435218898138018,5.27738027433514,0
2268,4.2229725088687795,4.379038839434434,0
2269,2.9397998781533876,2.919347036049457,0
2270,1.4750993353161725,1.3099727884620385,0
2271,0.025249085614119766,0.07509846727180364,0
2272,-1.444112573627293,-1.2731445121746066,0
2273,-2.302271610943251,-2.375734137159613,0
2274,-2.9494836899052617,-2.896228625689674,0
2275,-3.0097938715234323,-2.793175524182848,0
2276,-2.7547789922620414,-2.7408187613258446,0
2277,-2.3156518335938747,-2.3149118401393953,0
2278,-1.4986150405163365,-1.5619629803244282,0
2279,-0.6136168086861641,-0.5332494371806099,0
2280,0.32442742447709566,0.22674517949802508,0
2281,0.9245704542554488,0.9366285734991485,0
2282,1.4553002171877363,1.5796471931161946,0
2283,1.5892751305783326,1.7109420881867141,0
2284,1.4608643809805115,1.548694373952223,0
2285,1.3039492134226762,1.3896706458398485,0
2286,0.7722373248097989,0.8541112577331779,0
2287,0.38378631372496197,0.5646902785158671,0
2288,-0.08480181685476129,0.017683323195806455,0
2289,-0.5050964677890454,-0.39771959311472965,0
2290,-0.7548207199052684,-0.6728393789430595,0
2291,-0.8014160361755284,-0.5669668629910537,0
2292,-0.6777838453793814,-0.6812322884441858,0
2293,-0.5593010004986047,-0.53518345008498,0
2294,-0.333903379914537,-0.3704515113298543,0
2295,-0.1311175877535284,-0.21745795570475784,0
2296,0.03899031622752481,0.1670141436075873,0
2297,0.25775791466058706,0.38315779007825007,0
2298,0.36676405078484553,0.23380377283850956,0
2299,0.30295139595299386,0.32413146005235166,0
2300,0.3477609532480877,0.2081636524824832,0
2301,0.16379675210990174,0.09345309559483532,0
2302,0.06125715294252922,0.0504653934502393,0
2303,-0.021931817753151867,0.10493960986251702,0
2304,-0.01747452335930464,-0.12682190610669797,0
2305,-0.083269622960172,-0.18590616614498445,0
2306,-0.23822833716806174,0.05461601712194984,0
2307,-0.1428894129989831,-0.1431145671894587,0
2308,-0.11309888516692625,-0.11838100087718278,0
2309,-0.007614420043398511,0.02680003505697607,0
2310,0.01901454661952809,-0.26388994553678274,0
2311,-0.06884913043826349,-0.057481919533404195,0
2312,-0.07324089183524546,0.14298390856843973,0
2313,0.054396617799097054,0.10690826574528856,0
2314,-0.01780428434101534,-0.0078101362903913694,0
2315,0.03835585867115253,0.19719671996851545,0
2316,0.01460258833720623,-0.15720340348297834,0
2317,0.04810969234521872,0.023518109354693558,0
2318,0.0013248991724088498,0.021835131355358146,0
2319,-0.04435781097340755,0.15954813785937808,0
2320,-0.0417488569392011,-0.10249132859419062,0
2321,0.019409687182154703,-0.010946524766021228,0
2322,-0.08242331886916578,0.01919990231465423,0
2323,0.028498870894968366,0.15573175825659724,0
2324,0.04322124214844509,0.027811934084763124,0
2325,-0.06786658042163635,-0.0021656618704254563,0
2326,0.006033662719112166,-0.03641150438796726,0
2327,0.04813673364284741,-0.061382479628619015,0
2328,-0.051655209844388594,0.003153341501153657,0
2329,0.05014034878634091,0.05257808438508426,0
2330,-0.03801823500400955,-0.22288258270131905,0
2331,0.039452112628472466,-0.0015193163777394963,0
2332,0.056560142727602604,-0.05829770490147377,0
2333,-0.07034284767171384,0.1613606058098335,0
2334,0.030607234540274388,-0.11707406168502014,0
2335,0.05771954571187251,0.03210081197786896,0
2336,0.09359034166249292,-0.017560051714783257,0
2337,0.050574942311582605,-0.0004740706218327999,0
2338,0.02120859960524779,-0.04742688791973826,0
2339,0.02069763833450159,0.08945400543993708,0
2340,0.008639043805383424,0.07351362551826959,0
2341,0.010661125710474482,0.0007006991930510197,0
2342,0.05505342043817484,-0.1282401474417632,0
2343,0.07974886349398463,0.06548232101361567,0
2344,0.06417132347926652,0.11500332502398174,0
2345,0.02535239202276851,0.18559384785607558,0
2346,0.0005318203044968916,0.22358974253971076,0
2347,-0.03503852455246926,0.025830193582118563,0
2348,-0.004405432081316461,-0.062019651006906464,0
2349,-0.020238469815063134,0.10351656961099924,0
2350,-0.12505093596383957,-0.1234635659702041,0
2351,0.072545738665391,-0.1391478512519204,0
2352,-0.025429744221053194,0.11888839081440511,0
2353,-0.027883364398539796,0.08806288590970637,0
2354,-0.016472803903309165,-0.10716801942504,0
2355,0.010342497424726187,0.21893954097609541,0
2356,0.06037672621467721,-0.02268937415278639,0
2357,-0.0771424894055528,0.08574095090610251,0
2358,0.05597900514717411,0.07900590074102276,0
2359,-0.02593768001213114,0.10767577698795866,0
2360,0.050316648183334235,0.030311401333582608,0
2361,0.023983024207462275,-0.024519524374631275,0
2362,0.0744013614503989,-0.03771326260865025,0
2363,0.01771201707876535,0.0954721760928912,0
2364,-0.08178683814336868,-0.0817107590756854,0
2365,0.0717738493911905,-0.02110307939016359,0
2366,-0.06597482576744776,-0.08578940323628835,0
2367,0.012842643373002444,-0.11467701351221118,0
2368,-0.07295236249255194,-0.07469281010386696,0
2369,-0.02223996385279994,-0.06220861525252323,0
2370,-0.07101234421015935,-0.15058674422035712,0
2371,0.028422278354189222,0.1575111239531691,0
2372,-0.08464076265307295,-0.06500617724125506,0
2373,0.04256745376163555,0.1548284654300682,0
2374,-0.034149562345036674,-0.16960557611592317,0
2375,0.06373211779098858,-0.16303635318197002,0
2376,0.03362037937651044,0.012505111053555201,0
2377,0.15387353607872675,0.22899134502379495,0
2378,0.39443133753628745,0.3237031867075172,0
2379,0.5902941260980643,0.6952150166102776,0
2380,1.0388880458732566,0.9886217558367448,0
2381,1.5449226997094925,1.3801452115899115,0
2382,2.0248442968189164,2.076097778258772,0
2383,2.8663598393176817,2.9255496886851406,0
2384,3.714798247213969,3.673807578764589,0
2385,4.555341681730594,4.501482035495955,0
2386,5.387175784368169,5.320808035662962,0
2387,6.147697745764095,6.430408519347242,0
2388,6.627443648064418,6.741102472665841,0
2389,6.964172790633115,7.073388335070408,0
2390,6.904799228498593,6.863256364244973,0
2391,6.395503682520328,6.39653092699346,0
2392,5.617210073314318,5.7127677173282985,0
2393,4.426383634821622,4.529741631387712,0
2394,3.1457728446947892,3.1067303943538676,0
2395,1.5987673800892495,1.544070700415443,0
2396,0.22113821617574198,0.17528833660629084,0
2397,-1.1458468357473992,-1.1489472488715826,0
2398,-2.1873813577098256,-2.133816910022874,0
2399,-2.791209514826951,-2.819432792609517,0
2400,-3.011071530519276,-3.019298347416415,0
2401,-2.80817374067234,-2.891981105452347,0
2402,-2.341819751236761,-2.0928004848669923,0
2403,-1.6372903364336786,-1.868960931145205,0
2404,-0.7295517774847646,-1.0395756236938705,0
2405,0.18566951379119528,0.13093663996117225,0
2406,0.854457987605119,0.8912356253615582,0
2407,1.3882268483406417,1.3665729821584653,0
2408,1.5526896749772345,1.6828613234556518,0
2409,1.4771910174431933,1.5095643780684238,0
2410,1.3109935803461725,1.2708956060090815,0
2411,0.8940458169115686,0.9292170405413244,0
2412,0.34413567663521605,0.24291715561627772,0
2413,-0.010956385785888534,-0.02496554789437477,0
2414,-0.487861454973152,-0.42551845903649543,0
2415,-0.7531935270729884,-0.7206100560877509,0
2416,-0.8460318247643954,-0.8279844553820345,0
2417,-0.7275829860628812,-0.8794077558159685,0
2418,-0.6111527882852021,-0.6343593677003823,0
2419,-0.3656887513304132,-0.6004051110516062,0
2420,-0.07863013839945628,-0.404732080597155,0
2421,0.11843892921082769,0.2061293668767101,0
2422,0.286820542647429,0.1335811405183778,0
2423,0.26355816057890624,0.301049104938358,0
2424,0.24850239682215208,0.2925628785086679,0
2425,0.31096678638582087,0.1454230180874817,0
2426,0.20394534425997113,0.2719320117689483,0
2427,0.054368665682354066,-0.062338775313804135,0
2428,0.09447043772337062,0.09099567534286841,0
2429,-0.019451171940446328,-0.056683082275396646,0
2430,-0.05001757965417905,-0.09965975574966514,0
2431,-0.06633307612128904,-0.15679570694621506,0
2432,-0.0838085017835173,-0.06391216505703387,0
2433,-0.1297597643304694,-0.12338863344371401,0
2434,0.052256621721395086,-0.15337179898489248,0
2435,-0.06978758480285131,-0.015964369499394438,0
2436,0.028388168586473663,0.04890359159987826,0
2437,0.04606676351318684,0.06890063892860288,0
2438,-0.010611687424930849,0.02637951210626184,0
2439,0.07713629692866576,0.02196418152575766,0
2440,0.09860740702544399,0.046188158007389624,0
2441,0.05353844747600804,0.06102392967268114,0
2442,0.02411603128426614,0.10712932673273086,0
2443,-0.01685065175635913,0.11337688008388346,0
2444,0.01577321904253949,0.17372875023992493,0
2445,-0.13053248751154434,-0.012868174697912273,0
2446,-0.019121821721875654,-0.11197265735237087,0
2447,0.03308127634852712,-0.0667851630956726,0
2448,0.020738317044674787,0.15180241159940278,0
2449,-0.08009833752923526,-0.09867495254500327,0
2450,0.001445903752276705,-0.006299345770200129,0
2451,-0.0005285546860755888,-0.032016775167491685,0
2452,-0.03997926189738361,-0.1138860303696819,0
2453,-0.024213990510044546,-0.1317681542824531,0
2454,-0.04555858476715411,-0.024921866950803433,0
2455,0.03864373614108578,0.09022260606445094,0
2456,-0.073056183578109,-0.08764454750714291,0
2457,-0.038717063189738894,-0.2172119832675972,0
2458,-0.0406143088314701,0.06105175528379459,0
2459,-0.011645096224980004,-0.05297673146048629,0
2460,0.1281880217886569,-0.15874745677594204,0
2461,0.04059818473727199,0.008104013255984595,0
2462,-0.03653946323324192,0.05229338044980142,0
2463,0.012077533750224436,0.05074865390074435,0
2464,-0.032899019238764364,-0.10724485718332995,0
2465,-0.0789809415162378,-0.10180456084111095,0
2466,-0.07094803548791546,-0.06220070081741241,0
2467,-0.049430063738855744,0.05854442461589595,0
2468,-0.05799849606725886,-0.2773733821440633,0
2469,-0.030494398024000214,0.016697022975817974,0
2470,0.0802657313513417,-0.18276797218103852,0
2471,0.017318949429309158,0.10927116735222561,0
2472,0.13171134717515354,0.23731090222562223,0
2473,0.018876623662849416,-0.039908235795163706,0
2474,-0.00299057177575188,0.07355815382795096,0
2475,-0.02941497713557225,-0.054204278921056726,0
2476,-0.018789418771150083,0.030930998130765892,0
2477,0.03029798875487769,0.044642820792850355,0
2478,0.05726007463606938,0.1479104629687888,0
2479,-0.002203494294388173,0.07826705584506283,0
2480,-0.0028366580222056086,0.03880150306407716,0
2481,-0.03992032927971792,0.26979852029400925,0
2482,-0.10588549575084165,0.014993120007387907,0
2483,0.05720649827552405,-0.14614330503275128,0
2484,-0.026965507246607238,-0.06769376499789401,0
2485,0.05595433780598308,0.03567230460798008,0
2486,0.04263835319674199,-0.042603146491503895,0
2487,-0.07278776630043096,-0.047995295038495624,0
2488,0.0994907011678415,-0.2755951473622394,0
2489,-0.0256826556619961,0.11859837133408514,0
2490,-0.05000909892061146,-0.08203915763072539,0
2491,-0.049066643178812035,-0.11646136144772322,0
2492,0.03840303326502859,0.044982411694128414,0
2493,0.006366967438910817,-0.06753036047272146,0
2494,-0.09373890201384534,0.06869691940536198,0
2495,0.07568978605941301,-0.010666952395875865,0
2496,0.03789805833149208,0.12920092542323786,0
2497,0.09141556331085202,-0.023263704002219443,0
2498,0.0495654308592537,-0.10869973291446085,0
2499,0.028230071175371088,0.1326917007282631,0
2500,0.17204287298723306,0.10764658565732743,0
2501,0.08349290861690373,-0.01631114284544953,0
2502,0.26374181136586144,0.1663751714215927,0
2503,0.35876940715273853,0.25181029953187845,0
2504,0.5690328501367324,0.351294032541156,0
2505,0.9006296301200802,0.8739754386651247,0
2506,1.4074462242381445,1.5293161623064533,0
2507,2.1030240245168157,2.0815229617094366,0
2508,2.7876620059673285,2.5355909402537318,0
2509,3.548400087907805,3.6217353166403186,0
2510,4.523896444485969,4.300128958070596,0
2511,5.216885357968832,5.345705666834777,0
2512,6.085823741982855,6.138600411132643,0
2513,6.58500199509077,6.562587537349713,0
2514,6.978765024498058,6.883168162324419,0
2515,6.9437277683699605,7.024819951825299,0
2516,6.411301113434573,6.500171673639962,0
2517,5.731947823759675,5.694339906600998,0
2518,4.656747650669977,4.430352860912502,0
2519,3.3132110229717915,3.1969289173202653,0
2520,1.927615115721556,1.679593997696581,0
2521,0.3908255940848168,0.3235462840419417,0
2522,-1.0345442604775434,-0.8866617825209758,0
2523,-2.1351743896139994,-2.051098298177127,0
2524,-2.7748145272208253,-2.7343881162896024,0
2525,-3.01654060663849,-2.9736861340875484,0
2526,-2.828351796053285,-2.6663075313291005,0
2527,-2.463497798425086,-2.5251042504120145,0
2528,-1.6532286397386413,-1.7495231732126797,0
2529,-0.8552926009327535,-0.7445462744985978,0
2530,-0.005443091783618126,0.1374978416024572,0
2531,0.8042222233888319,0.7367964274441886,0
2532,1.2774347800996604,1.2124553201971984,0
2533,1.549805638634688,1.6876415771591846,0
2534,1.4822571351285716,1.6142727521441185,0
2535,1.3313518715897437,1.326080073559704,0
2536,0.9502201844933981,0.9470346655319419,0
2537,0.6163883779913438,0.433327059437836,0
2538,0.1010929044819088,0.0554296298902244,0
2539,-0.36293904021086093,-0.4243997481511077,0
2540,-0.7718166802522369,-0.6721528756707287,0
2541,-0.8498050750140766,-0.9926991877307731,0
2542,-0.6210892281174112,-0.5529394658765693,0
2543,-0.5558879460341571,-0.5307505550373657,0
2544,-0.30960855511318847,-0.32902190806424236,0
2545,-0.0917907739234188,-0.22778230028638322,0
2546,0.05486191409952336,0.1414340621741866,0
2547,0.21675055074735483,0.30317506222247176,0
2548,0.3293645764045649,0.4103633523615559,0
2549,0.19643134278888028,0.20604515464403597,0
2550,0.26974997640599924,0.2995468422310909,0
2551,0.3064128136471407,0.10123118038867543,0
2552,0.14866127127903378,-0.050676194611358805,0
2553,0.013484127051436862,0.30231826122580086,0
2554,-0.009354516277316455,-0.07216405905693368,0
2555,0.01855464236635193,-0.02264030069452777,0
2556,-0.0876789554340126,-0.016678962680345175,0
2557,-0.09702929988507947,-0.009442379686802435,0
2558,-0.09625758590709724,-0.19754903173186822,0
2559,-0.06780222774024207,-0.2665001305773347,0
2560,0.03560219377278254,0.017989771150431582,0
