timestamp,value-0,value-1,value-2,value-3,value-4,value-5,value-6,value-7,is_anomaly
0,0.25823507255333156,0.2590704692789719,0.24150852073721757,0.20738439579770862,0.18617208619488512,0.19289179187590322,0.28692225394030285,0.2772190263102838,0
1,0.3802122459829557,0.4735954382678196,0.3758042520131968,0.39707815308635386,0.39392544775468646,0.40234721782240324,0.37310949044372943,0.3591859660934524,0
2,0.6873200424973316,0.6678860355634897,0.6783187347472971,0.6395660248008861,0.6792732205508749,0.6598650843990053,0.6521679947764721,0.7153106983350321,0
3,1.2059285910806101,1.109355335656495,1.2133848596463115,1.1261971478764854,1.1296967723925906,1.065611800659101,1.0906126474688755,1.1548991405572575,0
4,1.7978880287090813,1.6790957969421407,1.8022401355512296,1.7466250259005662,1.7648882150233007,1.9000926110462053,1.8622930022635742,1.77824584266279,0
5,2.442064028045178,2.398884083799512,2.528463284008832,2.49970702840292,2.4798786878460684,2.5189972601764876,2.490566706887073,2.520909491961069,0
6,3.2958939630276043,3.3370797828297136,3.3781181778634766,3.3014773649273015,3.2778482476291786,3.3317106659930356,3.2581374938989778,3.2779863646790632,0
7,4.090307230240277,4.165331207909816,4.201384926110988,4.16513870714847,4.2215993972315555,4.132787941158031,4.173679589493915,4.1419101333102155,0
8,5.003228676062816,4.93715815037685,4.997773860060946,4.985931170373525,4.956640809149392,4.98888335484526,4.962505189684344,5.008694022084223,0
9,5.704564222184887,5.757337873684575,5.7523357020401615,5.818230806188488,5.743268915806366,5.818313910124456,5.746883936326151,5.7749468076208865,0
10,6.3622968679771414,6.369601954800228,6.503410604654112,6.415891727159367,6.403287421995573,6.380445873074309,6.398987167683121,6.337067623622036,0
11,6.839713387825386,6.915316281467264,6.890487606563739,6.814542734872402,6.951509165306382,6.787690192621959,6.799702026927662,6.805819116884623,0
12,6.958932805490384,6.986243393643654,6.904938016016942,7.030724057289319,6.993432129485092,6.993259318534548,6.973920516963534,6.964667408965734,0
13,6.695675594292188,6.744806958207272,6.69360246750445,6.678323517104925,6.663374313488659,6.650620815494057,6.71877964960772,6.678690179644185,0
14,6.05569016008008,6.037149171963589,6.107115109704105,6.054111566082983,6.094101395079423,6.091887792768276,6.028954330956422,6.117227218423791,0
15,5.007961531187997,5.01742475391903,5.017187845597599,4.9708334197312825,4.973004813711084,5.070297134499873,5.069005800848839,4.987108793453234,0
16,3.8493340840190444,3.7821876077847727,3.8150343956516295,3.7077407772469737,3.792213597950661,3.8111834942228398,3.7113344902086918,3.6547713940551736,0
17,2.256187910263146,2.359105087507666,2.297100076154406,2.2603909527724215,2.306295261879928,2.2698311859216904,2.2604847123552325,2.337834004277717,0
18,0.8964143972150658,0.8250388225763744,0.9196730995100498,0.7838621939934806,0.9112999113223775,0.8244155270386074,0.884040050145503,0.8327035138162353,0
19,-0.6066039144067299,-0.5552189357899443,-0.5233729061283262,-0.5879607544647725,-0.6689914162292143,-0.5304855557832637,-0.5644582681997262,-0.6248996202765709,0
20,-1.7309366181136674,-1.7713354908328276,-1.780261061041452,-1.7416745997145182,-1.8000170361078038,-1.7585724317175262,-1.7742152799196802,-1.7827214501174606,0
21,-2.6342150434090192,-2.6126343820162927,-2.6752884794642156,-2.5352787113613116,-2.5759640614170167,-2.626617062579442,-2.6235429450140915,-2.5964403573295307,0
22,-2.9956025934569275,-3.005896102957553,-2.973356273031046,-2.9285308001053996,-2.8702319849706255,-3.0592113331695954,-2.88382011799976,-3.0332475645075183,0
23,-2.9405702934256337,-3.027001429634059,-2.982141049428071,-3.0020318557411225,-2.939290632052062,-2.922520978525646,-2.871291734260992,-2.881809255895945,0
24,-2.597811374797676,-2.6514823876808,-2.565112270406019,-2.6145439498750194,-2.590519048520118,-2.5855009498026735,-2.594471162733396,-2.545203549411138,0
25,-1.9962987910494419,-2.026211310203481,-1.7894757932338439,-1.9690714993449232,-1.946328474952108,-2.061706129777289,-1.9635003876362624,-2.045855450662188,0
26,-1.263818102756205,-1.1480303510313088,-1.2309701487498879,-1.1514634838987505,-1.1746246382972536,-1.2469264608515676,-1.1785205805728172,-1.0892279220251504,0
27,-0.23930096945883628,-0.3998206250360148,-0.33586332254736023,-0.2525829777597031,-0.23852465812720852,-0.2091872003614036,-0.39133019890084747,-0.2892469386967995,0
28,0.5085906122765483,0.5318742338311186,0.6148948147763927,0.5236024242873238,0.49080751493303865,0.5589893196101242,0.46377424186790117,0.6090825157681721,0
29,1.1992422529648914,1.1405911596943263,1.0717174886558505,1.2378087745071227,1.136860930170723,1.1405453716400153,1.0959486952674335,1.1344056170624754,0
30,1.566996572344491,1.5482065697885719,1.5394602042678416,1.60905124101739,1.5076617608831884,1.5161635102315538,1.5093399520042727,1.5145956871056645,0
31,1.5491367072999696,1.6182118609601353,1.5440683155978203,1.5631418788989295,1.514639975611932,1.6290080397143467,1.6095224596543118,1.5129659928330585,0
32,1.43258310873467,1.4229130364447187,1.3599952150506225,1.4950592434993895,1.3653066227478683,1.3837843187583259,1.4266158426762634,1.4150884800403092,0
33,1.1210015793862866,1.0445193746485277,0.98790318755597,1.079122757312924,1.1187611991348785,1.068285836959055,1.1429952429470036,1.1275539192207675,0
34,0.6110071633503552,0.6283716539524323,0.6563625988942734,0.5820867011471449,0.5559143586465101,0.6798254798614709,0.5349474667747727,0.5762968668982116,0
35,0.1567354344293799,0.1756857649983976,0.19914424981112758,0.17123133253605904,0.18122157619068036,0.175928898008345,0.1503555927723254,0.1952191422622931,0
36,-0.23418195518084706,-0.29309694583791646,-0.2689132943675728,-0.30118698479614503,-0.1897599188182819,-0.35459891411082156,-0.2481216879332458,-0.22589563139891214,0
37,-0.7173570989733671,-0.5479757104170107,-0.6116896263853395,-0.6587308298392586,-0.5669321802381613,-0.529595813098355,-0.6003813975013956,-0.6059358311000138,0
38,-0.7865319265425845,-0.8031051943244472,-0.7138486722217208,-0.7401410754958336,-0.7511799128655005,-0.8102584636207844,-0.8708722908446382,-0.6832930898155463,0
39,-0.8091889726666787,-0.8003011244119532,-0.8179757960272267,-0.812498568203571,-0.8123093921981029,-0.6748570758970072,-0.7309295924456171,-0.7923699881833431,0
40,-0.6158925172183358,-0.6861592132268967,-0.7480947942736565,-0.6550779468701371,-0.6749416529160631,-0.6619340421605583,-0.6374656642075313,-0.5891574128439719,0
41,-0.4893188074731987,-0.370082100110189,-0.4761643744415454,-0.5210528612388869,-0.43424811761397,-0.4883106892236314,-0.4861534823792309,-0.3948802820715232,0
42,-0.2344492432044486,-0.29141034459054577,-0.17317853439572606,-0.2375673561717046,-0.16868172579407362,-0.18092514490314884,-0.2971071603900023,-0.1566311506024139,0
43,0.013094232369879739,-0.10824014222803083,-0.006426653479656831,0.0009422731689795114,0.059792334632936706,0.03041026933575065,-0.025232073634560256,-0.02091815778273084,0
44,0.1785731858470487,0.16211791695584096,0.13645832455126777,0.12473725634669641,0.09275584520503231,0.14966502888006897,0.1171326088688584,0.19714598306751868,0
45,0.3671221707794419,0.24218545284046758,0.2616023812976323,0.2174308974002494,0.26795643042833256,0.26644854587124167,0.23779010718745497,0.2109583330399188,0
46,0.2500623526502412,0.34951581610842075,0.2727394148474825,0.40548353540114446,0.27958306747722833,0.3488811101353401,0.3918789060845466,0.381427750142869,0
47,0.2745655451366263,0.32764473465316485,0.3210298954750052,0.3167267601769365,0.3332276936635543,0.3438475403610927,0.31259866227546873,0.3367132142015202,0
48,0.20552437285791142,0.17976621960963815,0.2576929718214517,0.23941192570707437,0.24050499540097878,0.3377827026216134,0.15801112926886673,0.16032945168514312,0
49,0.1492504136562499,0.08267655855428829,0.09067349653148779,0.2740488095404109,0.09983816328882637,0.0640538173137025,0.07458640086370597,0.17907533650033425,0
50,0.12174087454450605,0.12484909438803292,0.014408041819328875,0.07079393065026583,0.0310758453141802,-0.0003795427569263654,0.12313223397535195,0.17175491846015734,0
51,-0.028260211501806787,0.07472283145832874,-0.01846732511626022,-0.005507254531078223,0.09039036590486114,-0.14266652163018978,-0.022934352464805047,-0.0012369222886486272,0
52,-0.09423813255420008,-0.060094652203360126,-0.053579654830276754,-0.00024494628193660883,-0.02176112108764959,-0.09807524925743707,-0.10513382223637485,-0.022614036454938535,0
53,-0.15725164936274183,0.012326962720967616,-0.09344258862919863,-0.11144294301817857,-0.09634762331595514,-0.09300051925984062,-0.07039378925645251,-0.1536279069884736,0
54,-0.11244728153991199,-0.11810959006998895,-0.125257529232078,-0.08263306550003893,-0.13815198610412496,-0.0707070505289078,-0.14659940564234225,0.024783790646152715,0
55,-0.09041016779755316,-0.11951558305366422,-0.17759675552179155,-0.08431356044115143,-0.16112725718771198,-0.11862735328757724,-0.10330725296862492,-0.08360049689656389,0
56,-0.07742342382084785,-0.031404160399721784,-0.045386047756220405,-0.05024291092580554,-0.16501025090042898,-0.029797735975957522,-0.07714483113695156,-0.12165464939987947,0
57,-0.1960925526290033,-0.029245545909695345,-0.10377929100689456,-0.03746571102380505,-0.020572605429454736,-0.11499665029892034,-0.023409707026386697,-0.03061557142413394,0
58,-0.007916011928765109,-0.08531747067643178,0.0031088420280792634,0.023401916555827434,-0.032359611592803005,-0.018020298269860305,-0.0023550992353202314,-0.016335124451380113,0
59,0.0034575874849243834,0.09741020655060018,0.0648976474611116,0.048038843417879534,-0.06233702993323752,0.054905833220609594,0.03352800041454358,-0.07316375918731914,0
60,0.01816418563801349,0.039249272930663735,-0.042774068467392394,0.05347288678966708,0.06439888469803551,0.06958814372323248,0.05386528323511757,0.12912421427684995,0
61,-0.052004464239423794,0.00719891140057146,0.005662164540140957,0.0014968945171109742,-0.04138068352619834,0.0704077343974104,0.07080169358409787,-0.010174050398910658,0
62,0.008220566144554332,0.01764806868377401,0.013353745229869,-0.04275712014552502,-0.0077243018031876165,0.07661492292694806,0.06997994628352004,0.11639202839500568,0
63,-0.05501340627868903,0.024694812945088983,-0.04226555410497543,-0.038076593873318576,0.03747558689352587,-0.10454783971143948,0.08758289341858284,0.0336105276533646,0
64,-0.015769202705577426,-0.04590585317909271,0.06142465554314682,-0.012509381062578054,-0.055707042218727444,-0.02489826980670576,-0.08132868896161191,0.005622829247308529,0
65,-0.005995062711915628,0.025370085009882713,-0.03124757070763109,0.09705666578215585,0.026537871319580433,-0.02103008097474089,-0.005113256117307148,-0.028773170469546132,0
66,-0.008072408182477227,0.047373829049980665,-0.0024325072673688332,0.06629346011113885,0.03600814526127842,0.010796325424398304,-0.0047165860059644096,-0.015489499845639871,0
67,-0.0141188417531731,0.060897449380575196,-0.0661483759087295,-0.03940234908186422,-0.01294091703284755,-0.09885439097653957,-0.010008061874363592,-0.0356462933827163,0
68,-0.007654077423201447,-0.052605904146095464,-0.030290950572301592,-0.020165515414404457,0.035773493092446186,-0.05680962049492831,-0.0037499082324231442,-0.005317066198533662,0
69,0.06324661849825566,-0.056990900965853464,-0.029436431960106008,0.03060583822242185,-0.009616539670651474,0.012065349537254032,-0.036945740807159955,-0.053350062157594885,0
70,-0.0395037951526491,0.09089850770168398,-0.02369374913801502,-0.03317659639594946,-0.06208825875827766,-0.029228973801997158,0.06644248477499137,0.04948942943027473,0
71,-0.0549909359014616,-0.004975785953956674,0.06673250314910491,-0.049061388378784224,-0.0064493096187764306,-0.047566524086017026,-0.019999426121189205,-0.02137194894804935,0
72,0.011729051163064325,-0.009318180459680163,0.042489862817515274,0.017758459207118306,-0.04829660637619121,-0.08882330813043232,0.0008907580642723014,0.060424291573245845,0
73,-0.08724620139178318,-0.05122142714174548,-0.006222717206789569,-0.024326562927562953,-0.04734038447584688,0.015112918404751013,0.013778667159079225,0.07394270812806888,0
74,0.020146752939779397,0.09141695048944815,0.0007910820336374436,-0.03192150619960298,-0.034457398886454896,-0.025753661105586217,-0.05175174459236235,0.016716207940725692,0
75,0.09946936696777425,-0.09407310323479581,-0.006091220564964601,0.043643456551366394,0.03512113710127486,-0.016430797658574404,-0.012665369226173614,-0.026335213942412103,0
76,-0.09548616903352054,-0.0005893807285873337,-0.003983552642246416,-0.019388899278789617,0.0741137021040936,0.02826561573971231,0.07726017305506774,0.05281255277136147,0
77,-0.07690775409246127,-0.05564805620126,0.08262263244159772,0.003483228473489373,-0.044540186429952715,0.06604777860297731,0.047643443888107116,-0.05188211594657621,0
78,-0.05397636112934629,-0.08268339231478605,-0.12200031206130667,-0.02711081370539106,-0.0034202392561238446,-0.07207852241955622,0.01650200426858481,-0.08704583967074793,0
79,-0.0392321876993252,0.02514963627106135,-0.06914043037784032,-0.06589152157845418,-0.059315129309021074,0.013761101524658512,0.02243567996762368,0.011724301350356762,0
80,-0.06559428091127686,0.04778090256193846,0.002437029951227691,-0.012391690645671518,-0.02250970751918018,-0.04355782025344741,-0.02465751537335315,-0.0798416976185218,0
81,-0.09839999955940999,-0.01421498992575163,0.06943756937156204,0.054619541888947916,-0.009726599949251865,-0.013517970905927996,0.05379339648652214,-0.08885322023839459,0
82,-0.09065242981878184,-0.05453991861929573,0.01764340672055209,-0.01285246026662635,0.062076451444415585,-0.02256147970515252,-0.058660266463119407,0.040571530933223084,0
83,-0.029396151994529114,0.05768802312300499,-0.008872801562733698,0.011002787809295249,-0.015035741391161577,0.00651178784988288,0.10176889319034801,-0.003247155926030444,0
84,-0.03335107090021493,-0.03133079561673393,-0.007108029798420729,-0.006424812346407962,-0.053121580962544025,-0.030259245885035334,-0.019972278584459633,0.06277636125602253,0
85,0.028561371753194897,0.035216728335379796,0.03958461608564356,-0.01741906640002934,-0.05219921131535427,-0.05979754292639817,0.03056026748253014,-0.05415691642697693,0
86,-0.06506614014614416,-0.03148256376727279,-0.05171436521067864,0.04753739912779478,-0.01842965515663363,0.028177105909452837,0.0020855339836724765,0.04398915745154322,0
87,-0.06629335449447088,0.008219685323455938,-0.0006660491511628715,0.0824782636349732,-0.0006811409489128951,0.03935328848776538,0.06324849102528826,-0.04840314456264577,0
88,0.006602965254671371,0.04937167984211741,0.002690701096683326,0.02589688085213035,0.00985703660350694,0.045425067638971334,-0.06360186589565982,-0.004162770295815355,0
89,-0.005121611780682485,0.035266842655784045,0.09997720228260869,0.006878896398207432,0.03312909367324167,0.057491204831403644,0.008723264474391973,-0.051141558984142355,0
90,-0.0211804829056199,0.053709923963107774,-0.04280476169144585,0.07543379459339662,0.041621533142873826,0.004907732525307981,-0.08036417871656895,-0.017739973297171426,0
91,-0.11991735502613302,0.058652089270252325,-0.0107223936928628,0.0651422921299073,0.011357648899959194,-0.028476300347231316,0.009369803845141531,-0.029041431908845984,0
92,-0.022725544377400445,-0.05238246266942373,0.0463600198130489,-0.0013586517262339664,-0.04617752224650865,0.03263433777771162,-0.03789170864694339,0.07071243969739435,0
93,0.031222140902716626,-0.015601138029382861,0.08386396114734926,0.03323523321570523,0.04457833447767625,-0.06135188601387068,-0.01756408315445865,-0.02249534431759819,0
94,0.024965813449109298,-0.0031512724953808432,-0.03972832309072078,-0.11424922062849435,-0.022644538236760915,0.11293598411308163,0.021265185742550322,0.04988225924583704,0
95,-0.0035145118575339116,-0.0028815111405723817,0.034305554019122456,-0.03869828447081818,-0.030277440778499566,-4.932982179990295e-05,0.028334559243145336,0.09799392849911083,0
96,-0.0679091884156723,0.0345081416405271,0.05923423688776074,-0.026648144655387538,-0.0014546601993118409,0.01496678954554561,-0.03828422920455239,0.11410953705515271,0
97,-0.017365083480396226,0.02872607258820442,-0.04544314583120819,-0.088786397913108,-0.018866032005460946,-0.03554284271273856,-0.006822312763139784,-0.08947012036355473,0
98,0.01598317288006208,-0.03708157720620985,-0.06725311037332403,-0.01906766543064731,-0.09396849445693911,0.05004315188773149,-0.0009807423626978168,0.022340923120427552,0
99,-0.040315183143996444,0.06453278730223874,0.025467021570237197,-0.09066085748788846,-0.03186552240624039,-0.01820900963265461,-0.0067111012367945455,0.08617085325543708,0
100,-0.01521591173323114,0.026402482385232844,-0.06063572603881362,0.034460138383283954,-0.019869048746295536,0.048001425360982945,-0.01583332568058204,0.022955679069394795,0
101,-0.035340045327661246,-0.023510594728714623,-0.13993877699661256,-0.04325356705930238,-0.08866010160267077,-0.07504289286357177,-0.019221496112822596,-0.00729352850644668,0
102,0.09013080200755631,-0.09667691718245457,-0.046237440742392596,0.045232842169333494,0.011174751425645585,0.02750865899180855,-0.014286328819627866,0.01594855546990962,0
103,0.059589389150513906,0.07290321953338108,-0.0536992555845339,0.01762031141152234,0.009521238951569505,-0.030366565449429235,0.006642724739781684,-0.01298435746897378,0
104,0.05802653982275721,-0.05806173140859621,-0.0003061102535918408,0.024170439249294837,0.12482918805729444,-0.03031961760694777,0.030535424199355343,-0.02677036231228071,0
105,-0.08038868565260633,0.05374388118323862,-0.06435671045424986,0.08160689169282383,-0.05908489323698601,-0.07576849806264978,-0.07409386051133626,0.006082985783494815,0
106,-0.015670634475662894,-0.07317451087833017,0.02728703528974615,0.04442550986830542,0.04175428863004222,0.02014005404583989,0.007595570057260187,0.02628716935261188,0
107,-0.05348008017458608,0.030261820022112168,0.055317976159623236,-0.15464218872984217,0.061263600444949134,-0.05797580302853928,-0.07457231035343624,0.0008985540527341587,0
108,0.004571127810544794,-0.04819937602333858,0.02263159682696131,0.03970253671541106,0.09388094706459982,-0.06626179951267645,-0.020587626744831965,0.018721442630882067,0
109,-0.062160949621124215,0.0511329415749525,-0.013203885653321033,-0.08257569484168752,0.06774040227934262,-0.07387025034618228,-0.04329378526551118,0.005763049237443176,0
110,-0.05199283432253233,-0.0003359242328158056,-0.07221346666768722,-0.027852256917902857,-0.023251063971036573,-0.06113674426116018,0.02286535159363616,0.010279447321131051,0
111,-0.03624120499753557,0.06604261336275136,0.008575334419969865,0.02201539879930818,0.035212429357550215,-0.047002845405157125,-0.04431297837631078,-0.09896973560725736,0
112,0.047341257562092884,0.04283349676487324,-0.04827360047055763,-0.06913509361091898,-0.009176445510216132,0.10649547024819676,0.04606054181731295,-0.040320846375325445,0
113,-0.02610090082540438,0.04319818119554512,0.0398225593537337,-0.10910558658981469,-0.007278649753667643,-0.013261298865849277,-0.04899679140373085,-0.007756615648963639,0
114,0.05836145392040673,0.05209795051327912,-0.019524631598321397,0.07794425646738881,0.02461932642288265,-0.016143948492076267,-0.0020043268938385707,0.0338737163434731,0
115,-0.00026111212607137467,0.05198966981861369,-0.06580555867480713,-0.031988385345781155,0.02872283912851991,0.10217606716375709,0.015680774259719914,-0.01004128057285649,0
116,-0.02246456733907414,-0.005491353385380451,0.004894630615028515,-0.02850812051040595,-0.03086108860233463,0.07006253336270718,-0.015141892607782896,0.057265884229777124,0
117,0.03506602570866992,0.07154284005344166,0.013534796648792634,-0.004153839915853592,0.011211222300536335,0.021900243083008357,0.007990318413952285,0.0771134087667313,0
118,0.012444210507381547,-0.008065372020252369,-0.005940793353627989,0.05585508243042622,0.018740719063911785,-0.05818466350776286,-0.0065728803819727795,0.0050236897598053085,0
119,0.04455589890771963,-0.014604745752291575,-0.06669940013001927,-0.005776535609388357,0.018813405161894177,-0.03145018672351961,-0.05348371481751104,-0.07651836231195178,0
120,0.02114370627963938,0.02123627238641165,-0.024749278346874747,-0.01015112034254199,0.06954559310497274,-0.012933334347106617,-0.011382122310167081,-0.0062689196710602225,0
121,-0.12162667763754856,0.006209823316083761,-0.0873606212848192,0.0166756134406995,0.008701287565440021,0.01856156745346618,-0.10466896183699462,0.031255342360342865,0
122,-0.06838260115857929,-0.032466384703916135,0.1236527622493121,-0.034734711907466694,0.024913247591994123,-0.030394206961215628,0.04985759032171612,0.026735418122479426,0
123,0.11001959542082332,-0.001831430916976462,0.04722634948748206,0.026271424539207725,-0.009105263144929321,0.01695788159950393,-0.04975873977395945,0.016117718701407643,0
124,0.0694453468694522,0.14023895019844418,0.15201310736368207,0.07575825290070591,0.10396432346813009,0.06350141830940553,-0.043411660196789895,0.12351385467268224,0
125,0.26452837494597137,0.15009574201274428,0.27827383531518485,0.2176326099203461,0.22962835581191385,0.2994751047854946,0.26205301491539423,0.1514913954460634,0
126,0.5429931164363379,0.451433130070745,0.46860947651446955,0.3864791382677566,0.356602976747783,0.4473006465805541,0.4278893057132617,0.4835886294358784,0
127,0.7599683930421747,0.7411990408024125,0.7872383597738778,0.7974667046933902,0.8092468104298114,0.7162666056334914,0.7498491740440912,0.82353238926618,0
128,1.1843723097603844,1.1420468463313218,1.0713768586840364,1.241477311624441,1.0922636708716467,1.2113386347318233,1.1669343103392458,1.2718591945513045,0
129,1.6759395983779386,1.7877457743027703,1.6797687956517708,1.6675754177517843,1.6610604400209632,1.6988047180709502,1.6788620956942901,1.6725928197599804,0
130,2.3685396244209804,2.3364510707137374,2.3510017934140035,2.4710279688676837,2.3401618276760545,2.3658314418712822,2.427079938260635,2.330867829704843,0
131,3.2298943603182,3.117668702665751,3.122579883804531,3.1071578482836872,3.1178490061125808,3.1302105096472244,3.134425504963004,3.1458650381701774,0
132,4.071273219068605,4.080663540096447,3.9608209166606407,4.046552309616087,4.058758664318095,4.0278821336129,4.013852770798876,3.926387480563982,0
133,4.924906963868613,4.893503441439592,4.882734792138042,4.901869205089491,4.9232803879099,5.023880516240303,4.847752251795138,4.905069942822132,0
134,5.674776984238738,5.729199678161648,5.778393949922802,5.68758415208599,5.618156390439323,5.767842183708891,5.586932341478103,5.736361101826773,0
135,6.317636357107027,6.381647826421661,6.417740754864253,6.360530595330745,6.445572482607748,6.366428587836037,6.370823394010239,6.341918447725312,0
136,6.783252981947705,6.846101624550973,6.794346616372688,6.774030745231145,6.781073597577704,6.780633136286581,6.838647103545359,6.874876017266752,0
137,6.984709562598101,6.924608539621083,7.068730666771057,6.946655609502956,6.986696793695511,6.947004195107203,6.947118251527289,6.980154207383637,0
138,6.809834552124689,6.766532279913447,6.815654163720626,6.73761911581892,6.748662138758842,6.69527404742123,6.772991437661961,6.75940104185974,0
139,6.184350850559221,6.176167316424946,6.065548346696975,6.1203982695325045,6.044243706537657,6.112940918283025,6.04822598370244,6.143256649157871,0
140,5.115244498088784,5.228284665836423,5.180034481850713,5.195892505754905,5.163575345300257,5.1543131528013175,5.185868798503905,5.201845401400105,0
141,3.9447257037820527,3.9950511134111393,3.9383409414738244,3.9376892011066342,3.944530355375659,4.043972884501884,3.853598338283105,3.9420762411105903,0
142,2.5905087347666185,2.446744108936502,2.571627548861628,2.5719390143751104,2.6076998920413237,2.5521099419451274,2.617714980758036,2.5514964797495048,0
143,1.0460585255611161,1.0990620399169928,1.1539948390771153,1.078102187337067,1.0309134249491971,1.0146405021645772,1.114853772883106,1.016651083837491,0
144,-0.38661718711855325,-0.3720401919640626,-0.4828535068491415,-0.3383275393831717,-0.4447056450013002,-0.30188022120727054,-0.37469174316401777,-0.3044176392534838,0
145,-1.672194390779743,-1.6367646233452533,-1.5879608119220068,-1.557226079260457,-1.6043396004939947,-1.6208311094701082,-1.7300087655235399,-1.5602238420356733,0
146,-2.458913843064564,-2.4261744043217592,-2.6320057375751524,-2.4454246188975843,-2.5130804307190027,-2.614777907284601,-2.5561932348751513,-2.504087115349776,0
147,-2.9290041925849466,-2.952395884895602,-2.9018131935025715,-2.986450553371812,-2.9368732551960663,-3.0041110718594792,-2.9437096086873074,-2.9477758938029366,0
148,-2.9944047827579556,-2.926879872208527,-2.9409386802981428,-2.981358373755633,-3.0352595183720648,-3.004392075273319,-3.0401503728325756,-3.012870972488667,0
149,-2.662183966088789,-2.5170369074118035,-2.6798628136899176,-2.679531228347094,-2.6796269046954833,-2.656096803754521,-2.6116988021896987,-2.6447550775636106,0
150,-2.011626093811042,-2.121247308089296,-2.0386589522363017,-2.065285018669905,-2.0672234923039925,-2.0270075837503865,-2.0812334071765206,-2.088535749234296,0
151,-1.2623610880752443,-1.284733087864281,-1.204246323638438,-1.2768796926387491,-1.2946935058692326,-1.236721743213817,-1.222247255928958,-1.372739432913949,0
152,-0.49251126735176626,-0.3932859682760715,-0.3997879488661326,-0.41008300607627757,-0.40293133086923577,-0.41626405390331245,-0.4481318027745824,-0.4263353747380364,0
153,0.4444765223527661,0.41200900119586253,0.47121022790784484,0.5165778580149427,0.41918529209097427,0.502450422306727,0.39889341423513053,0.4603470202848943,0
154,1.1400073116650866,1.1045478182966855,1.072650545118506,1.065312057645519,1.0657817019092573,1.1454817171405112,1.1112914019028077,1.045479682544697,0
155,1.5191191123308838,1.4698116631191878,1.5684222744112308,1.5902650967122547,1.6115622584098406,1.4831514684358829,1.5978474778701932,1.430419196370416,0
156,1.5402917765339337,1.6266715270848557,1.574872570858629,1.553940699564315,1.6516137794735488,1.6490201434427236,1.5628516728288904,1.538197820656456,0
157,1.5301351972656225,1.4404101828390972,1.3977320587114994,1.35199193686553,1.4951696301083421,1.4365194112768958,1.3834796170632941,1.365437165062071,0
158,1.130486228788232,1.252188254478806,1.1658658377877216,1.104232468768496,1.2004867743625878,1.178220848790514,1.1616411675715705,1.0987707070392299,0
159,0.7140886904850646,0.7555453147085645,0.6897522788006889,0.6582948723884053,0.7357607719422714,0.6804270408718558,0.6904526385743763,0.7054184644704241,0
160,0.2691033940042842,0.2918512299269188,0.21668297693636374,0.3354124957315149,0.1845704938617886,0.24935136953415996,0.28133330617617647,0.21343608965842528,0
161,-0.13930753842684557,-0.1081162021832951,-0.13623655265279788,-0.1591507760155304,-0.0865780155371428,-0.17675402581840674,-0.23325796927159026,-0.16056012929623573,0
162,-0.5971382424271414,-0.6009711064331666,-0.5661826602306589,-0.6176136590006124,-0.5131890808247889,-0.4788450575780313,-0.5463660161444858,-0.5271810970553357,0
163,-0.6859115381729934,-0.7991529250319782,-0.7541601502930457,-0.785868671780536,-0.7650634027222255,-0.8096186847981844,-0.7532118957917867,-0.7535594744183692,0
164,-0.7929690636497395,-0.7351685946398205,-0.725700574644134,-0.7073263415352791,-0.8271870519102511,-0.8193035292435057,-0.7967507524003289,-0.8120530120699687,0
165,-0.6735207043065088,-0.6187094542645543,-0.598243034968431,-0.6550236980206916,-0.6967090470673779,-0.6863641470743791,-0.7528351026479557,-0.7231902352486373,0
166,-0.48769578414330716,-0.456543271120287,-0.4329135842094758,-0.45639856249902744,-0.46939838940625417,-0.5328539657081415,-0.4915466711288858,-0.5937766207754119,0
167,-0.2695774157637355,-0.16102581277192085,-0.20177988459506765,-0.2728896822610721,-0.26285557719520686,-0.23677321040288682,-0.26971980875437623,-0.2146686621302829,0
168,-0.11441891401719528,-0.09854483528997778,0.020201994322514127,-0.09330036398759238,-0.050258180964739864,0.00034371273946924574,0.058538796630683315,-0.07860496548243687,0
169,0.12390292199799113,0.09417577593676771,0.19583671355569449,0.14077198423599072,0.0845448776821042,0.14809816301688922,0.17392551006454204,0.09209967599915383,0
170,0.18417997195751779,0.30748371552337106,0.2765433954666357,0.2751504992265944,0.24407543806717683,0.2166082071966362,0.27429329220387155,0.20639706746177094,0
171,0.34491587975640187,0.3313550984855602,0.3428810342291771,0.29539740666804626,0.37235760545694707,0.26437422998446464,0.3439339157110646,0.3512648055507697,0
172,0.17286129513493226,0.31518664491887377,0.2503780989143089,0.21043844473803996,0.29391929002053796,0.37556542706563895,0.25987778490921665,0.24996261646970347,0
173,0.28389653736043347,0.2711291011908616,0.3245265490267188,0.2414011187347525,0.24782173195146734,0.23986291676984042,0.24121149367129152,0.21525988137885727,0
174,0.2326496696741165,0.12891113314989402,0.09129920041918994,0.15900639097551605,0.21554340241111697,0.17367953268177497,0.2227991704457265,0.14515101383146148,0
175,0.07314948900678714,0.02466443435466193,0.061462376717156916,0.07184976282863224,0.019264521410517176,0.027662862271350914,0.05657936342732786,0.05651091173334005,0
176,0.033580122474484525,-0.024017051118320185,-0.08718589124196202,0.037706446114456005,0.011013245427693209,0.033523169389617594,-0.07407437689946136,-0.0606104564271715,0
177,0.08117741618822304,-0.022286479162146704,-0.20849398037050498,-0.09570815501317739,-0.046786616891984045,0.009032760796435904,-0.0360126750392985,-0.09325696087288209,0
178,-0.16779047803589847,-0.19413207512645878,-0.16761999884763107,-0.11298674465738888,-0.11859431320759933,-0.07088205537499467,-0.12363664763945435,-0.1159036607802949,0
179,-0.12382171870274927,-0.15116939324638687,-0.11711710681447222,-0.1088080010069258,-0.15103861333426996,-0.067023869730604,-0.05284198839602354,-0.12473791187899849,0
180,-0.1569058858703244,-0.09969740330965822,-0.053729662389578596,0.01147247878320884,-0.04764170124364269,-0.08901555581732536,-0.15948754007906174,-0.14410849217500282,0
181,-0.028876141279582934,-0.08210599846144596,-0.0781229855273691,-0.1069259777448735,-0.01784811722628067,-0.04480433722463349,-0.026897857299761574,-0.07903481106473556,0
182,-0.07788849091874647,-0.02787203840089456,0.043433557884853494,-0.055733316274549236,-0.036017876884534575,-0.10150390206829514,-0.01323142549462,0.07996165890066216,0
183,-0.04527450183150395,0.047968651065562924,-0.0020659221476567826,0.014984237489593108,0.07846486768926156,-0.09437417705944516,0.05578215656429598,0.03143381167122533,0
184,-0.03633456361744357,-0.0007201890575902238,-0.04479128744479487,0.054859527799482,0.017712213481451425,0.09431866826121395,-0.007323152703428006,0.007997034388636278,0
185,0.025035549602457897,0.06508577175929636,0.056823620146996226,0.0500392298556713,0.10895124821334998,0.09913643985490336,0.143243607316223,0.032807956603905584,0
186,-0.06016454297157385,0.009525649518717101,-0.03314630775608292,0.03895218519867408,0.025982571634845294,0.0324384882543184,0.08940442873894236,0.07691350111710188,0
187,-0.0335569692904779,0.1147471745804023,0.00042954458964081926,-0.0524756868671422,-0.003918823373934236,0.06614019411537307,0.00018872906809669354,0.05959879384478692,0
188,-0.003393916757773431,0.06150586651510642,0.11289520465321429,-0.0408754980395827,0.0009675889851750649,0.05748967799096113,0.047254709604219264,-0.11580990495999119,0
189,0.07665851735760484,0.048170820503871864,0.005755002226846733,0.07952726985866929,0.052600258871507356,0.06261084209686306,0.017437445854264717,0.03407360194245712,0
190,0.022071078181349946,0.08659046901381888,0.00039858061658431957,0.005510195783696708,0.06486359382944241,-0.11261885165777595,-0.09016302240978077,-0.003906347040192094,0
191,-0.04666412907731445,0.023762290159300186,0.013878857781619298,0.09542794161742443,-0.01456918133754604,0.07799904304009264,0.0389845977707962,-0.0887581524998842,0
192,-0.019679973200899654,-0.03266384246711238,-0.038028980750628154,-0.004097810919516829,-0.053838068189783525,0.07210475629720266,0.02913669745024037,0.023745897439157795,0
193,-0.014084735884474814,0.06102123099750601,-0.04967313478429824,-0.06602373984057411,-0.05421946176211646,-0.023352883227125854,0.08728273250829345,0.07421687197816383,0
194,0.0631405722312417,0.07195521307451001,0.00485864052218343,0.014769050999284973,0.02013557934567582,0.1016232702562298,0.06127191380310334,0.07694839622032616,0
195,0.07343522316452548,0.01709158699407255,-0.0728099119709305,-0.012024651900194559,0.02078609055772827,-0.008157638938893912,0.06981691490715466,0.012769670743242045,0
196,-0.0135929998475325,-0.04956649524823792,0.01435030009480246,0.04402513037442989,0.01860267981804606,-0.0036741093821906923,-0.007935058860765488,-0.04194913250341997,0
197,-0.0052017057755639065,0.1645159981143579,0.045370529956484905,-0.032084070852369875,0.02268990956889172,0.07945888207809063,-0.029950923062244696,0.010796682895317036,0
198,-0.026055019512253388,-0.03618847879368594,0.03444751102022746,0.056306208808174225,-0.011318808203140976,0.08544389539055809,-0.07147564513595689,-0.06878594042353538,0
199,0.03532956531923706,0.01863458348442436,-0.05287007601529076,-0.03674174896469594,-0.013934240142800338,0.027478008317328297,0.000613686064548242,-0.00927491959279312,0
200,0.004136322955797549,0.06602444669282215,-0.019570678014145058,-0.010395341897779433,-0.008111157883286176,0.0386909623617503,0.0051949920170815,-0.05879050019240896,0
201,-0.043787343989681655,0.06043021997792303,0.07377959872837912,-0.006183418926198612,-0.05841879167130521,0.0322520023975173,-0.013779974470218856,0.0013057385890465944,0
202,0.042164104981711664,-0.016108097162960053,0.05104152108608873,0.062119810011739184,-0.004683189027164828,0.033787919152004,-0.0815216813175563,-0.06914058141203376,0
203,-0.02316716339382719,-0.011956096556484606,-0.010321517299336917,-0.023357832729618434,-0.061962797310041284,-0.08456531239774204,0.0118740731571507,0.020591112265302396,0
204,0.010501694536889433,-0.004282418469964165,0.002611558686903308,0.041204740359747354,0.07783074139404891,0.03303003511674249,0.03864036753923893,0.008062605995217804,0
205,-0.04116894771697664,0.041638518098384425,0.002108389403597906,-0.03794090004496162,0.06419039821633242,-0.03940469539170127,-0.0408135694744061,-0.04641961823439587,0
206,-0.08008019184581627,-0.006490870015581546,0.08420181298425562,-0.019842401195482418,0.07605273175121643,0.12467670364298632,-0.027001255693513537,0.0120719781951872,0
207,-0.07273453306783999,-0.07141631478389998,-0.04811203837730252,-0.03254763593127658,0.06593951695222539,-0.04559499431386788,-0.015071066316916569,-0.013051635505201447,0
208,0.025638338702306505,-0.01875334515836423,0.04307169051442801,0.05840069050333849,0.04546746026594545,0.002677816864629174,-0.052451045249311816,-0.05424885897378107,0
209,-0.05880809266912475,-0.05903964455799248,0.009561709623099976,0.055830694312215774,0.05496966333817966,0.11970551420446256,0.04148750349051257,-0.03270563433400381,0
210,0.04836157687234932,0.024483046110864378,0.03423469410126756,0.031160527586475424,-0.07569806909369874,0.05564502404089704,-0.019348863092422855,0.0011144218593019943,0
211,-0.008029670600716729,0.00881621996942431,0.062260408594595806,0.01658923636708787,-0.04526058481994861,-0.03475336414962476,-0.01107810040149911,-0.042697156464653635,0
212,0.04989132169153309,-0.04597380155605978,-0.07494511173926509,0.04814003439071603,0.006934814596132204,0.10797555176928102,0.005525105751722854,-0.11478581685617543,0
213,0.018659821834472012,0.043055239798841856,0.023353473643107525,-0.06956539935944975,0.06477754252506755,-0.03412034846351582,0.006278589879218379,0.03459462191137826,0
214,-0.03845935508598543,0.06721636441266553,-0.02755859000767623,-0.10063401132612945,0.009082741071176697,0.042955112797963615,-0.0316037688798467,0.02817579743298677,0
215,0.01343558446837632,-0.08898100867802547,-0.035795405208271465,-0.024752394696430355,-0.12965740479403567,0.04913768574821453,-0.0037291674490580015,-0.055801852730319734,0
216,-0.04897660369063901,0.0389821503963113,-0.015826648052172335,0.029332858266223377,-0.019391240674308797,-0.015043256742876451,-0.029264578406999257,-0.009515206569090917,0
217,-0.0016488592982865,0.08155185057409477,0.024184379301294093,0.0024336919878992767,-0.00854356197494224,-0.010461361487881765,0.053859851695064444,-0.02172318240155638,0
218,-0.0004870728885708799,0.05455818534888565,-0.03953308447843096,0.027546916599369697,-0.06766880183772385,-0.009436612319553561,0.07209979403657697,0.051349718380572146,0
219,-0.018910388118789943,0.00852842768879455,0.02655644175755333,0.008076898304818461,0.0872715529830082,0.02362391003459433,0.010991255237193149,-0.05020674735838897,0
220,0.04707412029903768,-0.011195373503951481,-0.04071299227722333,0.0519910335361926,0.05265880511931866,-0.007371551950933788,-0.07896125575838152,-0.03797589256902443,0
221,-0.0729182100300332,-0.009144825099800262,0.03138988030416701,0.005834494945915163,-0.05440603791207106,-0.018658974821652113,0.05195318928349524,-0.041251467789388714,0
222,-0.05821238356072799,0.005342506855785258,0.057857298601040774,0.10105528104391294,0.05931545402059898,0.0842680351411527,0.03926891253218751,0.04795307709582563,0
223,-0.00967221221053075,0.015099775454278585,-0.01665156281743392,-0.015791909415987813,-0.03363658514461961,0.10630137634154796,0.036507281859187266,0.05341710786431747,0
224,0.010924014652359645,0.04676724286047947,-0.03103951017335177,-0.07581855292509751,-0.0030906374455434656,-0.0462970262755798,0.046431952122071685,0.0042154636536443895,0
225,-0.1022353940656174,-0.016512597347132084,-0.04062994428347073,0.023143356393248018,0.07535340814671926,0.05099773004668593,-0.06414155541158108,-0.020391124286088132,0
226,0.02388905265470022,0.08153880306704521,0.004524497683505012,0.016382946473031866,0.00932518720655395,-0.034199232289531784,-0.10197214314430975,-0.13914988629685168,0
227,-0.08904901487628042,-0.060496695620804716,-0.023059194992632884,0.027097117847577956,0.036724369515423794,0.0647046776949885,-0.057274417201877294,0.011856066982288043,0
228,0.052712361480908784,0.04805679800069446,-0.049068870058597655,-0.029910205469428065,-0.08482138617334495,-0.062252820076908535,0.1032953474513281,-0.019913190721398442,0
229,0.012623143231151851,-0.0647928658594697,0.02535924676744978,-0.015757665343026504,-0.011392863221467155,-0.05989058220991143,0.03649289012101229,0.006646576357267496,0
230,0.008024529870084507,0.02375281505439929,0.0033450455902860163,0.02706734133497848,-0.0052057183939462565,0.00848484444787668,0.06795509430995417,0.11943447683935395,0
231,-0.012569197436020014,-0.024403680196307277,-0.021154115803428956,0.059683292091839035,0.05899638536138836,0.019932007962864973,-0.015533093129711066,-0.09849288919711602,0
232,0.011233208833595772,-0.04623856603740123,-0.08330722459442373,-0.020121331923589714,0.010111564477482965,0.00879599173920858,0.09245428563957848,0.011892861461370545,0
233,0.09081905979828687,-0.030687100858016084,0.10319426747322681,-0.004240601531713613,-0.05925411176340058,0.07325383291257412,0.08607424722687926,0.0309628689613275,0
234,-0.09352982394604595,-0.011975354377693856,0.0750226128179034,-0.04406690758860625,-0.08206712287677134,0.020459504175895024,-0.023975245413270344,-0.0011772425523911452,0
235,0.09839486612048245,-0.010255847860548716,0.006306963943577716,0.01059271477129885,0.02513974296147438,-0.06945135325811833,-0.01780146793826949,-0.058352723026927185,0
236,-0.002417965427200588,0.030102971980887468,0.016468685016738847,0.01616636940365031,-0.01883890013422814,-0.00944462670067803,0.06019882274671539,-0.01958520781185619,0
237,0.022057677028819896,0.13595193228685137,0.00760223121786642,0.06026802291712942,-0.0019611235473572337,-0.03018903105723603,-0.04456106221263824,0.042359203040211985,0
238,-0.0534664082023062,0.01777215687280206,0.02683898363976418,-0.021748178845944054,0.027532420427189765,-0.06540808901211324,-0.01995476531952874,-0.0011068158077699494,0
239,-0.04260827736873641,0.08959009757077228,-0.009877241699555114,0.06797008794389245,0.1106367217752967,0.03497579524657709,0.0646479725254316,0.05637975641847237,0
240,0.02220032036817745,0.057420943917650916,-0.01876796472570244,0.03051716998364136,0.0354409557467032,-0.043811903645083486,0.007669146182060553,0.012400394167773108,0
241,0.01818562700367562,0.09195786783443063,-0.00564920790603172,-0.11589160385697898,0.04478839623144831,0.07048793832043944,0.025003788445897682,0.050308563953756755,0
242,0.07108849511115731,-0.08691883273484478,0.021651936623690766,0.0031039710337353137,0.022165223321831577,0.09877987428073345,-0.023769486828457084,0.03034997662941232,0
243,0.005786191919578425,-0.05513182671622031,0.01826462912891292,0.04734795567926135,-0.09711408480430742,0.0941578739196973,-0.015734544041825182,-0.07875756707372429,0
244,0.013543990487438432,0.03657730404254283,-0.010525722105993328,0.044719899835825264,-0.10174208619769606,-0.0073626662535648205,-0.07134997441224578,-0.018756134575830252,0
245,0.0389987562403065,-0.029081011279655025,-0.06281531801462696,0.04475841093477796,0.030539641742750957,0.04678174026046425,-0.01717831864998412,0.02815905583996909,0
246,0.021363504830670475,-0.01908418570163308,0.018643914413339763,0.053997566029067905,-0.0663328821366663,0.027135128611693142,0.04686693392599585,-0.022677793681939035,0
247,0.06347090248353295,-0.01041763738905008,-0.0019245700961627223,0.03462234180673504,0.05913976780600583,0.0708770650932051,-0.037024991244961045,0.16231235412014006,0
248,-0.026182621981817568,0.07845433763623041,0.03516637429566333,0.03958660419735641,0.019203108005709933,0.05937582135512185,0.010002267387356469,-0.04038383492317988,0
249,0.13159238675006568,-0.03487739719500757,0.15657999903770392,0.10796465448157491,0.10999136715453618,0.07150801996797704,0.05017146868189964,0.1688102494354833,0
250,0.25499051811732737,0.17572110255118278,0.279360837098092,0.18837539770922898,0.3049724593733403,0.3185692639602784,0.21062161692905418,0.15075098555781824,0
251,0.39566181310602866,0.3705800969365305,0.4587354576704296,0.41997396008640225,0.3845800308934356,0.3293644525988277,0.3993839129954188,0.43252985704014,0
252,0.8187942787207041,0.7136371044534761,0.6954787617910285,0.7333113212302675,0.8059617089882454,0.6411720698289164,0.6113851590735483,0.6039183762215062,0
253,1.043977866651994,1.004455359773936,1.082012884900322,1.0513330989807892,1.121199960519215,1.09479279091575,1.094381420886811,1.032991731834163,0
254,1.487295663989074,1.55119630132829,1.5923428098119459,1.5719602120357212,1.6545420682948255,1.6700873448035507,1.6605116756138822,1.5448424009953319,0
255,2.362120263353835,2.3692150833443986,2.3410469198569324,2.3110245430680934,2.3229211734778974,2.2521124360803144,2.246699302687752,2.354084155868062,0
256,2.9826067252245663,3.032224436660646,3.058511698357271,3.075929630853213,3.0719365608806792,3.055738076285767,3.1019455322769156,3.0848756001677655,0
257,3.9369300995835927,3.8900781013419903,3.9005107127152754,3.830989635512617,3.872244500859797,3.8972844832832405,3.946962758255128,3.9828538422256483,0
258,4.716415723329583,4.811268986846744,4.751023773927534,4.714211427277383,4.6819211605696935,4.758320794787604,4.857162098136001,4.826380484192884,0
259,5.570739540962991,5.612514049161912,5.500771267705152,5.586005004324954,5.6000760354489305,5.508772753059034,5.571414709050641,5.571413891044125,0
260,6.248986501942614,6.279966608924231,6.245929288475991,6.3187353424062875,6.226833676356183,6.3535517841581575,6.265928713772169,6.233661685597343,0
261,6.748563783870619,6.795339351186271,6.767305358372797,6.835959015698063,6.7726797592966825,6.760336388715282,6.736521794618645,6.807451628623748,0
262,6.974506471812227,6.920554967785549,6.922776367306968,6.95735096203186,7.005248259767379,6.9723753359617655,6.916177318875453,6.942366214499571,0
263,6.830691677472981,6.85174009613331,6.80417548115341,6.851521959118564,6.754598521432937,6.730084798241668,6.805241523735633,6.809451281736432,0
264,6.181244284672681,6.2745949352943935,6.205173021563571,6.22495221774287,6.331793286854427,6.223855984852146,6.238399014631304,6.259801869429253,0
265,5.342817148664324,5.292547472768691,5.29688265141405,5.22411086511372,5.31170492206075,5.36456959576506,5.222650824937644,5.28540304435081,0
266,4.130569295976972,4.138552879880909,4.151149971438289,4.161684391389606,4.120852759182081,4.118479129882391,4.13622500337604,4.091014439617222,0
267,2.7136269473215826,2.749544429619516,2.7958286172031515,2.758403204473166,2.6776617273314423,2.797550444710995,2.8488170767300764,2.69387405212002,0
268,1.2300655919482233,1.3230086208883258,1.299344950134294,1.222294108710252,1.3118963480176549,1.27893827995291,1.2109534139140967,1.169186906589624,0
269,-0.22034331997250142,-0.174471472661476,-0.22745672507930859,-0.26459956198803725,-0.21310221652806402,-0.2664954492411771,-0.2230719403737848,-0.20469086762265734,0
270,-1.434447219877618,-1.4177598124068123,-1.4929037291429814,-1.3908424456587638,-1.4750556810659747,-1.3650431488007995,-1.4774955647386325,-1.563650541245204,0
271,-2.438639788314554,-2.425639454488095,-2.4946308168317306,-2.3751409179715144,-2.468457669199687,-2.3074956243295044,-2.3983245272927287,-2.3457086744402917,0
272,-2.8438130516048457,-2.9575977198556775,-2.865332715237194,-2.835569198545482,-2.9430810667351084,-2.9781030522486884,-2.909317010653476,-2.9157053316276307,0
273,-3.0369329347894682,-2.945924794373939,-3.046245633268357,-3.025532704445362,-2.9718832071475982,-2.9529073972854203,-3.0416855906608538,-3.0133108918277247,0
274,-2.762267322751601,-2.807660227221116,-2.6934347607611637,-2.731823808021762,-2.7756193587737426,-2.7284260990198153,-2.8245403524931585,-2.6881257241775014,0
275,-2.2125346070442546,-2.104170639633451,-2.092150493116827,-2.2550115968344584,-2.1315250241222894,-2.2080466989128182,-2.098302856289016,-2.349655923843093,0
276,-1.379455183915856,-1.369303437795154,-1.3693060737339624,-1.3797062187479576,-1.468354782715877,-1.332312897850675,-1.4125695219821217,-1.3004052763079077,0
277,-0.43271731692825055,-0.5839825608006486,-0.6107701711604567,-0.49512820640562416,-0.5207756676751877,-0.5108959956149439,-0.5484951031007878,-0.5457959717973235,0
278,0.3648239430483663,0.365065927820816,0.3085867108186431,0.27092829625073456,0.2358284915848245,0.33623321896153496,0.25649901371300593,0.42036749671809803,0
279,1.0325272949771351,1.0246232426041437,1.1038689932479049,1.055954851785251,1.0694616032694149,1.0768561087149513,1.0276146058932132,1.0654851233043166,0
280,1.3826790241814924,1.5286084747291184,1.4943552694477469,1.4244150379173015,1.4832299748825473,1.4126396501536576,1.4338315255518654,1.5078758201971434,0
281,1.6515734461515377,1.4969312826339847,1.5174700458584955,1.5561841131813932,1.634748595822631,1.5989946646584479,1.5675893068420297,1.5605216994017057,0
282,1.4556613704645807,1.4588232511413344,1.4894006741944754,1.4351917528847806,1.458831940173672,1.4863583603574624,1.4785356723234477,1.5181354057615746,0
283,1.2192197749104927,1.2814694961907318,1.16903710835825,1.1918311002086597,1.1895102749212483,1.1961254518183326,1.1487556819049807,1.0424093530605696,0
284,0.6348089343145997,0.7752250445307045,0.726269287150958,0.695588841337059,0.792776296420914,0.6993205102456482,0.8241022672405552,0.7751887862215286,0
285,0.2638940981016297,0.27219961193998965,0.3450153886541505,0.3907948260792234,0.28202121482379916,0.318161805784022,0.358911775939509,0.21996395208613473,0
286,-0.2465944929579879,-0.17196472212513048,-0.16141617589746152,-0.20083481385978602,-0.09849041535386174,-0.07704053122596588,-0.14896273250906866,-0.1764421098908572,0
287,-0.482115426312299,-0.4866228321947268,-0.5786515022599727,-0.5381125034531362,-0.5288301753512554,-0.5547896130307199,-0.6381108387361691,-0.5724411058639067,0
288,-0.8389331493194327,-0.7139898373565071,-0.7455505356989163,-0.6193841863745321,-0.8205066817129965,-0.8239941880216831,-0.8345702424748914,-0.7433877414085815,0
289,-0.8042346975379151,-0.7731063232906895,-0.8660220145684444,-0.7183059577435036,-0.8042308864318349,-0.7552803832387601,-0.7661999047573106,-0.7764590617319491,0
290,-0.6624469410020164,-0.7825686171565105,-0.6746971722150134,-0.7325959271711759,-0.7281064361811094,-0.7318113574597781,-0.6270348005495582,-0.7599365394020998,0
291,-0.45716317912145743,-0.5590742546748998,-0.5142083015801309,-0.4842725739775785,-0.39389189927990276,-0.4082115387541903,-0.6699764518989131,-0.5142420239286225,0
292,-0.3514231514680484,-0.18643682298371797,-0.3651846328643792,-0.22660103465752401,-0.35124333020848303,-0.17991846971340658,-0.3189438593403421,-0.25957462633889117,0
293,-0.14119831319494228,-0.035920492215239026,-0.19077990558668637,-0.05894181403500199,-0.16936998696962435,-0.14555269293773174,-0.03935079648355554,-0.06932476677836234,0
294,0.13728200732731302,0.04579249099392518,0.2430151673549139,0.11510064880239447,0.1707958315016861,0.15496584015494566,0.09737391934424967,0.23814219960437882,0
295,0.23162702585411019,0.21824524857865568,0.2121969827019703,0.09411638375058928,0.27352006188458333,0.2738989815393455,0.3036667109303915,0.2271749607710779,0
296,0.3927739072575715,0.316735596127262,0.3109039859749637,0.2270979082006771,0.3285637791659253,0.3504604206891617,0.3230402859031911,0.34222994632206843,0
297,0.33299337004240315,0.36364022243588084,0.2454851904152382,0.4022920270085011,0.3182366354760072,0.43605535665967354,0.3086405289677271,0.33717739506637684,0
298,0.3284979764501238,0.17872898259613496,0.322824005476621,0.34582057448656955,0.24216167322377177,0.24853628031439462,0.24101628743261633,0.3061923672358199,0
299,0.24593473354513817,0.19126885038953614,0.14271906154353983,0.24384038596660187,0.20372049070076664,0.1431890722716402,0.1388528178544905,0.21786141489401856,0
300,0.009866676373158856,0.055247048153482234,0.15354216019332978,0.04519037792931613,-0.007350907712453128,0.06752087104599225,0.08873857022129583,0.024166107220085997,0
301,-0.010028109304594012,-0.06522118914514154,-0.03586050164347792,0.004510214501651535,0.03014947975186259,0.016526433646572688,0.027172150876518832,0.021219502976719404,0
302,-0.061452915223357885,-0.10786531385659345,-0.027173060961832717,-0.08471300985745882,-0.13565126322040688,-0.12379487806973855,-0.1278924757694605,-0.04344712948537551,0
303,-0.030259464693846203,-0.21290602969121075,-0.08808795520053496,-0.14488933336881177,-0.054554725265209776,-0.12247568721952917,-0.05259646698791899,-0.1291586012599422,0
304,-0.07434322211236813,-0.12272525004214661,-0.07820305539301134,-0.21354118516578763,-0.14461698192506273,-0.09197079685738324,-0.13869595409547503,-0.07039211452665607,0
305,-0.1729190309416826,-0.1426895196724846,-0.10846892970213476,-0.13704289088636878,-0.13463224596531503,-0.007471865507363992,-0.1837958684505402,-0.06406033681574166,0
306,-0.19515036262567395,-0.027691442164303873,-0.022762901755716804,-0.12284241097585162,-0.02349837525498987,-0.0848292381076898,-0.12347725690268943,-0.06350353022174411,0
307,-0.015727304788814817,-0.005940017354536739,0.050300950687972495,-0.07210774728022035,-0.09640633608812452,0.008527644266604434,-0.10360684578340776,-0.09436662823447692,0
308,0.024902339144745315,-0.07116261187755994,-0.017203015002096592,-0.08757049130059524,-0.0299926277292052,-0.052615684315063575,-0.028450354437854975,0.0034119966100051007,0
309,0.02193049730374297,0.0744388931325379,0.03328058600119035,-0.019973553276467316,0.0793346236810776,0.09081222654821139,0.05087507691148791,0.05911125428849921,0
310,0.07816776323767503,0.00887667187172033,0.11385590279031431,0.09294416827107556,-0.004967215296614848,0.011381807634919267,0.0165503234278288,0.002185371517623609,0
311,0.024113007205847165,0.06605843582164353,-0.03642899672083626,-0.06785853755097851,-0.01975787028490055,0.035235986852270314,0.03652018432499477,-0.019341266201675325,0
312,0.03302608458123443,0.042141432516551246,0.08327154430279879,-0.011469722568083277,0.0085317614094359,0.09682792374541424,-0.007297635512837158,0.048419436972154846,0
313,-0.011348506626200534,0.008892167791243685,0.014915972288958326,0.06335428905384513,0.00852782883167183,0.017357382717513397,0.0009451794915780534,-0.003621662604642365,0
314,0.005356643235215159,-0.07720959774457598,-0.07550275483458287,0.03174262642221328,0.09056721132773206,0.057867888922675664,0.04485023532086395,0.06412201586458938,0
315,-0.046745524896009624,0.0576840154569883,-0.008302987103157414,0.0598092213958897,-0.010510389511518663,0.011992994203898499,-0.008355886574048548,-0.005531332614525593,0
316,-0.12015029501987504,-0.09214355701415117,-0.04664081106291646,0.04050990678885429,0.00852560390706005,0.06182689405512451,0.007530563055323623,-0.034541633360953075,0
317,-0.021130296366587205,0.05228222526911718,-0.01897821863181657,0.064291247050779,0.10331128216675786,-0.04072257854304217,0.03477915292377198,0.004719959469804123,0
318,-0.04760989382459425,0.036502530771039224,-0.057896346333891034,-0.022567161662910448,-0.022434636709141254,-0.06443318435600355,-0.03178594447830966,0.09929896834676699,0
319,0.0418546603671155,0.05844638287519541,0.017124261364713064,0.0467149234323468,-0.033707088523286376,-0.02344957296866527,0.012832425596774902,-0.015258094411155903,0
320,0.028590011308683404,0.025924573772635365,0.057202545220512546,-0.049239915821351087,-0.039857492561790234,-0.010109222599997879,0.1314162457312161,0.028898824887414,0
321,-0.07151972701635274,0.008242685140520007,-0.024027965053605632,-0.003966105312817108,0.04349003113072431,-0.029397141019735205,0.04155927970443585,0.05908185081864373,0
322,0.03960855822928925,-0.055253940070065635,-0.08405726701085717,0.049513142484873915,0.012970524695098216,0.05324107807668243,0.006581089594868105,0.05182961524618025,0
323,-0.08636178405058452,0.06641808249154195,0.04491651482922036,-0.026991810650249498,0.09931777485280108,0.04167846691904803,0.046461831381551064,-0.014210880052584826,0
324,-0.0711174656041579,0.043175630650163006,0.019447276665608557,-0.024887307508068807,0.0023583305323520484,-0.0064332763443008464,0.11294753849313482,0.044178559202120556,0
325,-0.09307482256549589,-0.04174955080483306,-0.05743135042000933,-0.029426896108782654,-0.029563535446088085,-0.0026626821183364756,-0.07831064942622405,0.11072408373713914,0
326,-0.018656672897063842,-0.037755824018189464,-0.09012530126170332,-0.016529905424806025,0.03279599275761083,-0.13135049679903385,-0.04454075467011713,0.0014269888920005439,0
327,-0.027338017051960217,0.024451306709445383,-0.04976926341296062,-0.01150939362385602,-0.05709810435856694,-0.06131127100197188,-0.039229115822657964,0.061618249856626665,0
328,0.09209170618495226,-0.02407397921246574,0.010477111971913913,-0.040056448755301365,-0.045081293527036256,0.032560716988162416,-0.03368603150717176,0.01514591849433482,0
329,-0.028689101030056407,-0.006192218570631085,-0.0551022326471967,0.000145600534678688,0.07767140900402822,-0.06669573773359147,0.043617081173661296,-0.02356795137696724,0
330,-0.007686215332582852,0.04035703458550874,0.006089324566494857,0.0005089772469110381,0.075832739137882,-0.052854187969641385,-0.038914860620899404,-0.062017292383072686,0
331,-0.012973230212656096,-0.048448439651509,0.05151155528103162,-0.0009853639638367753,0.10487291245518014,0.05321703451238614,-0.103773827680626,0.033862278187598654,0
332,0.06090872163213303,0.03371319145555033,-0.08257580475801633,0.09887622256065529,0.048428923924384644,0.09256492810468113,-0.03366710947604942,0.14257775736084552,0
333,-0.0381991866156314,0.028211385005975708,-0.011009588911108467,-0.043455755404550225,-0.04450393483618506,-0.03568764921810485,-0.010234788566312462,-0.06963723909073573,0
334,0.014653112287031825,-0.006273701522795567,0.029073862961369268,0.01644286818566753,0.0039116854335599326,-0.01332267690050579,-0.01541461711487819,0.08420859426937387,0
335,0.033038345146869756,-0.006067292204757585,0.08815921771029596,-0.025268638923999477,0.043347855067088874,0.10225457865534691,0.029265859325539625,0.07913202977600023,0
336,0.0037219902117610684,0.04702586666399973,-0.04128841589503655,0.007078237116285173,-0.09529520500522765,-0.07977027736575079,-0.0546278634109611,0.0021132839271173994,0
337,-0.05248855880439591,-0.04313247503314026,-0.035441683055934814,-0.017479658296402332,-0.01180615775181429,-0.006952546758887591,-0.013372523445018339,0.02128676660383836,0
338,0.009177566518617928,0.012025696052804201,0.02221777080952608,0.058324063936217474,-0.13335408057543596,-0.022436939763203167,0.13519321189896139,-0.028029013563814497,0
339,-0.033088097559569346,0.05426632260775902,0.0425996948329008,-0.04514808395469853,-0.044880550325500285,0.0007313926941271601,0.08200366555873712,-0.03855584723144896,0
340,0.0056644584531096885,-0.014125387278091716,0.006517711601921188,0.03460132930284576,0.03962902296384295,-0.041867331294796764,0.064852750622013,-0.018846753155057485,0
341,0.044376642127223954,0.041524478340878766,0.079673455244395,0.04445940212754042,0.01417730880829861,0.07825324176131933,-0.06885758805279676,0.020943823378828396,0
342,-0.04654192100835756,-0.07070093929454417,-0.017004552415887646,0.032625310542398936,-0.03256880164698558,-0.08655055820549783,0.019385000634175295,-0.018403969350104108,0
343,-0.02290875218249297,0.0663505798695131,0.062848899753854,-0.025264403975062567,-0.019388092261277818,-0.04958095743285392,-0.09453318861456413,0.1125092646731796,0
344,0.08810617412442966,0.017054965828573868,0.05326019628527776,0.13386668734493878,0.0411146375381502,-0.06773935100571285,0.09732432677607583,0.15128064831719004,0
345,-0.0159223470388667,-0.024976705575151678,-0.005604014583979903,0.008748605391319613,0.02452794562497703,-0.028668119977401273,0.08700395497632431,0.1356739086768969,0
346,-0.06185808956084436,-0.04322781573777215,0.004822718529027798,0.05843774500738099,-0.011053176474806446,-0.04520586897033007,-0.10150473891929272,-0.040012711402826626,0
347,-0.054287594316328555,-0.09094275118969702,-0.04595330257311263,-0.01342512504514957,-0.04481140089290775,0.038017784150374864,-0.04693902656476397,-0.03409158704081121,0
348,0.02505668786711791,0.010131728375762372,-0.1005070365393722,-0.07246128514634705,-0.027957192064293403,0.018038263551201614,-0.059414930175218386,-0.01834063441135091,0
349,-0.024533858194835452,-0.03667204768273123,-0.026403415673100592,0.015269055795702615,0.011913322093447965,-0.0385792035967443,-0.017443527955134517,0.01683294948169637,0
350,0.019014542379946566,-0.012257050466588903,0.05415809775708396,-0.05591960352757351,0.061911509683926856,0.04724453149143886,-0.0307408552974489,-0.02333065191178134,0
351,0.016133888568357006,0.056199667124729354,0.050970122833265546,0.053944138795058744,0.01212690402769907,0.006666528675589714,-0.04036140427110452,0.06900024208188293,0
352,0.0019248279995297888,0.03189616606662235,-0.04780271615595213,0.051305370767835895,-0.03263196188552297,-0.012900783562457262,0.010452784784854762,-0.03311398192724321,0
353,0.0006036446751959419,-0.003949571491779961,0.0751897077435098,0.013629928343240342,-0.034533297017622006,0.040274775860191896,0.099057788691636,0.01035135124616937,0
354,0.01694524552583976,-0.08775515284180921,0.03960590662949541,0.023524998985143913,-0.02797495793850313,0.019876540696610025,-0.04129496596357266,0.01737679561636501,0
355,0.01536481725551342,-0.014286864374379114,0.03138831231256061,-0.028607545054960624,-0.01570307750450931,-0.003319385425708315,0.020770479739205632,-0.08321614444897955,0
356,-0.06807983143718535,0.07876071850472031,0.010655564577963303,-0.11683786245698023,-0.03184490761881501,0.05355629287150497,-0.06907410571505979,-0.012521816559238138,0
357,0.01265890336819551,0.08045231641974672,-0.04202218610046806,-0.005004268320119047,-0.024212309580771547,-0.022891556958368423,-0.08987504008245321,-0.038378544331435234,0
358,0.06985989085592599,0.037356991897534504,-0.08301641978198275,0.0861757712396473,-0.007018079086849219,0.039499804949174135,0.028680106064137977,0.03412619506990347,0
359,0.07383532157489175,-0.12326449543340547,-0.0068046938808113576,-0.033787736715834106,-0.016297084619659903,-0.03498107444535274,-0.012016890252584976,0.06726629639848353,0
360,0.011878359770535618,0.03619805700694008,0.03907078045364782,-0.05357934173613762,0.006088639689704303,0.020504145212791303,0.005811067683933319,0.10449042059633881,0
361,-0.06516635981087429,-0.04962528987134872,-0.005737432756113651,-0.011784904206789633,-0.04486608335481376,-0.05453179825241834,0.05624360596966815,-0.04168231484270474,0
362,-0.08500838843433749,0.025974202011715353,-0.0577636556033777,0.05687070651219477,-0.06169291542534632,0.07160010196830129,-0.049683026027167856,0.03184097155115441,0
363,0.024765654469459754,0.04588573675700117,-0.025476024715279447,0.02883144532165368,0.0670100901065774,0.10024188567723666,-0.034991488077629515,0.013147165275435194,0
364,0.01611095664035322,-0.009128983919010285,0.009728318863101094,-0.047464783400510975,-0.017307267670298897,-0.07676376009107998,-0.006295822865441146,-0.009185160880878292,0
365,-0.03829178229855153,-0.08076922302027172,0.056750666197832485,-0.06281602556760217,-0.04364825782810236,-0.014009681422237321,0.08918411113707465,0.006529192266145857,0
366,-0.004324414336647788,0.0494202014195977,0.05529732908856823,0.07161116895530001,-0.024885392832898697,-0.022511383449952908,-0.05693957063492392,-0.08423666474841227,0
367,-0.04294460029083339,0.12770184688696504,-0.03963845800260478,-0.06604445820619824,-0.008217810227466003,0.005264553835177236,0.04313538556961937,0.0762634472519531,0
368,-0.05360419475818132,-0.05003594766977486,0.029361616978015054,-0.019039398218869227,-0.04808894266433255,-0.025529042617314673,0.010075646651505354,-0.007215140288627287,0
369,0.0007340569240664482,0.040846373034832476,0.01564319625711677,0.011541643378139262,-0.0025988564375323143,-0.04114738674273821,0.020665203229675685,0.1074147678906394,0
370,-0.0058979678815187795,-0.051978210964007704,-0.08305739681760782,0.025794149739579803,0.027095488744692028,-0.01861576444641861,-0.03340052147648329,0.0001978468081792824,0
371,-0.005992190365826167,-0.008077284384417583,-0.002365770856857098,-0.02571042299306046,-0.034219597533277184,-0.06042360350926912,-0.04665258229833856,-0.0038007665304896528,0
372,0.003180867123780653,0.04036132504079862,-0.03471484427277394,-0.027954191305574073,-0.00705988016671991,-0.0021422575171959283,0.07201975028681797,0.03368003969833544,0
373,0.10941591699462032,0.05635721714239372,0.08570095431033495,-0.029340236249385365,0.05269789032758346,0.00034976483832186225,-0.0009982409845190054,0.023616703964652444,0
374,0.038468299508913714,0.08967871413414977,0.08836148686431143,-0.022346637685823983,0.0016101870271957863,0.10886128055583304,0.18029486626994579,0.0699483603666875,0
375,0.2672884615962804,0.13067588544908898,0.19472453120213393,0.23102744740504133,0.26554554597644847,0.21961092540077964,0.19769260890920073,0.22851854079007713,0
376,0.4029280043501819,0.5121637184761051,0.3512168202720774,0.39450525742732906,0.3732681510225414,0.3819259029797882,0.3977586964086688,0.4279046536623009,0
377,0.6625474141905141,0.5951149345632368,0.6149206604060675,0.6463671657213557,0.6217876229352151,0.657282177752536,0.5896466602586292,0.7506953623436687,0
378,1.0076209157299476,1.027706195615436,1.0303675049992354,1.0660061214544243,0.9828366510371761,1.0962608924113713,1.1036191239100843,1.126006252922474,0
379,1.5100301183344667,1.4849222606440071,1.5378435047740189,1.441531038126766,1.513514212522892,1.5769040057742445,1.5864971668691912,1.557050885918063,0
380,2.137594774670316,2.224092676555596,2.19898622925225,2.169446847745449,2.1068120461791504,2.1856202242679847,2.1830023183926133,2.2494546408788625,0
381,2.9386833438127065,2.9252780549869284,3.0201481109569723,2.9093680745460313,2.996156722105361,2.8833495839363037,2.9278825486635283,2.8904675242419637,0
382,3.722751173299094,3.7736751349426596,3.8382953783084206,3.72865304039877,3.7723517945538623,3.8275884911844593,3.7680074252285785,3.7617275062223423,0
383,4.638753847889349,4.614092971340294,4.641331303733035,4.627037108885833,4.624143255622251,4.707288281516833,4.706597496897369,4.609486469941408,0
384,5.547666325328533,5.468734633914379,5.543122780964895,5.453431795050617,5.528281915085876,5.4593885862703635,5.461076879696209,5.478947732701136,0
385,6.147541199071213,6.242771441443506,6.211214809753858,6.131030689504859,6.253806439183531,6.260067650411389,6.2731622136823875,6.234926477705116,0
386,6.710161311494116,6.69634955589842,6.654251690980878,6.723110877373548,6.72906533125207,6.71967389218957,6.750110148709427,6.725543498602454,0
387,7.015405796863143,6.905099664880315,6.951278561083689,7.04534396695499,7.01638699993173,7.031519407430205,6.899732906848606,6.973091405004615,0
388,6.826760720698035,6.8417208800248925,6.844354373532747,6.908385814041899,6.868779951796355,6.876288684498508,6.852300698493064,6.856117059490367,0
389,6.320839813858438,6.30900360336073,6.372957801000918,6.345309345523716,6.322897968615762,6.348159887185864,6.367715275463236,6.301038380151653,0
390,5.5602076992629685,5.483520564751867,5.373332642250697,5.444502226899171,5.465654988462238,5.488713914994374,5.459292708029524,5.422874731122243,0
391,4.238898425413987,4.259568070485322,4.380720411272132,4.332146646909113,4.3261717442234024,4.353111072650367,4.372200969963094,4.363817513188533,0
392,2.8560894136374526,3.0104544836005784,2.8643284678667364,2.888123576310112,2.892592730689946,2.9324270740849387,2.972964220837768,2.930071324559823,0
393,1.4333389898043212,1.5365094487312998,1.4301217656954248,1.4491459016885075,1.4258935827978367,1.4609856587975723,1.5774456826326175,1.489045562685737,0
394,-0.052848489191327085,0.032360802718888144,-0.052094351667605274,0.05450517643195357,0.023714589089790336,-0.0020254842579265388,-0.02777977227598438,-0.05643441050060964,0
395,-1.3127524333582807,-1.3555658581122974,-1.2502645219101562,-1.303126466846608,-1.3424508102579367,-1.2897749041775919,-1.1964107485779785,-1.3132665931290297,0
396,-2.3178519968618523,-2.281559918194013,-2.3411594336681567,-2.396731707136059,-2.299437254848724,-2.285481722521911,-2.3244308389670443,-2.3962298410572167,0
397,-2.7581290212217606,-2.8625171612280766,-2.901927265568177,-2.8953070384546273,-2.8224280036615044,-2.938835643731025,-2.855455325943114,-2.851191789172832,0
398,-3.0535225446153906,-2.9188382770514396,-3.0870836859595383,-3.030123764427826,-2.933629608020442,-2.937057478495118,-3.0219322071097774,-3.027348139500407,0
399,-2.8286075652151332,-2.7803303513802726,-2.7784749889549767,-2.8018225121061744,-2.810815209558558,-2.753892736930334,-2.6899325635465203,-2.805889230025395,0
400,-2.2704158967056056,-2.202270282712841,-2.261828330671544,-2.2689250609264144,-2.220222003657783,-2.2346239967037045,-2.181726699933249,-2.3324012685619033,0
401,-1.555727748950268,-1.5646219445649596,-1.56649065914456,-1.5186113227853713,-1.5781366905872973,-1.4493655884968064,-1.5731714202585094,-1.4946630165909647,0
402,-0.5987073754308918,-0.6792025958473314,-0.6951651735163836,-0.6615161217835616,-0.5877517405029832,-0.663648164360034,-0.5894754921977287,-0.6450606410221923,0
403,0.27139441460574043,0.24796754752542777,0.220142377716887,0.22667847011443598,0.31270771053533153,0.23760329293593196,0.28293402125102407,0.1947209997686761,0
404,0.9977897157113365,0.9556455289838622,0.9489572792882541,1.0139432709046392,0.9795502048214346,1.0342464959415818,1.023826932123984,0.9537124313315087,0
405,1.4406866693934497,1.4459368234946282,1.426775792359266,1.4313534384167368,1.4039988339703962,1.4393491831553678,1.4176487309633803,1.4423203893177203,0
406,1.5814358017540366,1.6177326477641736,1.6869500644070716,1.625449617724748,1.6412358409220091,1.5159498051656894,1.6668381840845519,1.6612905528917252,0
407,1.5099997869900013,1.5149904662992055,1.4524727395397334,1.4918891065272106,1.5077012581235483,1.5503978193250956,1.4809588028579757,1.5666288674653832,0
408,1.2368735261002455,1.2883787763330714,1.2036986810727852,1.232640025369576,1.3251466926851196,1.2122631235882344,1.2932426092383704,1.153075240131617,0
409,0.7677670674704574,0.8489619071848931,0.7798054218818546,0.8306472228451603,0.8199289746755868,0.7986630111342556,0.9353642668966848,0.8157633153318709,0
410,0.299169184351677,0.25815925242978255,0.29499819556570905,0.3453577902873214,0.36186359342819835,0.3446807416936325,0.3536063361787832,0.33213972296289923,0
411,-0.16093875317012318,-0.09904789067601387,-0.10226356383230954,-0.0923954438704458,-0.1295658643783506,-0.0757335502673099,-0.04466406703074932,-0.056137750419548,0
412,-0.5091531798478165,-0.5860654222560678,-0.5329676335062055,-0.5700489132059549,-0.5196879735709617,-0.4221717794438614,-0.42803495651346013,-0.42003956166393,0
413,-0.7111045818851262,-0.7062343108399183,-0.6950215848053543,-0.8220088805603566,-0.7863777233838048,-0.7300974381479439,-0.6626663685207135,-0.7706424324892751,0
414,-0.7832469052550576,-0.7176753437902147,-0.7863770998225382,-0.7306716114047764,-0.8344617777905263,-0.8277479944403773,-0.7933034300111513,-0.7808748068445865,0
415,-0.7639318173356067,-0.7145741033087134,-0.6742670401767061,-0.732005066872938,-0.6610525668123004,-0.6458477966705133,-0.6716596277496344,-0.6765333910571624,0
416,-0.4762337797386998,-0.5132640804455467,-0.5030364314715671,-0.5400929671178375,-0.5552059974995741,-0.6084664153627634,-0.5219606387395402,-0.5690314452067754,0
417,-0.35463081798560403,-0.28747227025045086,-0.26764065890018257,-0.3688566949065402,-0.39472767302714856,-0.3418966431165098,-0.3533061704856271,-0.29999219125887616,0
418,-0.14204058255822838,-0.11473993722310474,-0.07755217148808481,0.024989157232750678,-0.08106567383546623,-0.07870563355775216,-0.13534741594663555,-0.15292920236060373,0
419,0.09730974569427091,0.14125194219758505,0.19133976168636757,0.054326721353471344,0.16678514847351528,0.19036616570796677,0.09863677454749842,-0.006752505255920027,0
420,0.22986536181724204,0.2188651896068663,0.10104207361313194,0.17607553461955325,0.27979334343615125,0.2985727440733517,0.2806948602408508,0.12990184611849837,0
421,0.32402507774111977,0.3596812425433433,0.2622319642276486,0.312552631875485,0.2968521155215421,0.30920522637543546,0.28280460287417636,0.4015739140024097,0
422,0.2878340218596681,0.3471301536480218,0.32506683047794943,0.3657788680672681,0.31165608571206427,0.2828075762204255,0.42169110069420507,0.35344151975546656,0
423,0.3715109690255591,0.29785836089965234,0.34891786354866183,0.21753383389768752,0.2975184270328437,0.3114306901418362,0.3086888678327645,0.3334734577198324,0
424,0.11896515642334189,0.23685218681230286,0.2338075635175936,0.1772886155547273,0.15014214354636374,0.21756865985262497,0.21847623864294502,0.19687128322803377,0
425,0.07105921194667812,0.11765212802669173,0.03256278717462291,0.12411738060314277,0.10992869484182471,0.10971929518113388,0.022588766995023823,0.11241128103889418,0
426,0.1308713381916702,0.010200540037592578,-0.03175494438453989,-0.05600292235810202,-0.13368538617951792,-0.08075145327620555,-0.0017592215642340241,-0.014419458181947377,0
427,-0.0717726371621748,-0.014580619815445055,0.0006951815179580823,-0.08992884041150943,-0.19124306007874997,-0.15837233785626928,-0.04418039801631268,-0.1690898302195185,0
428,-0.06683052783425145,-0.18044473060555188,-0.11024502348191755,-0.0866670364095343,-0.136065616480033,-0.05263204522804454,-0.01651474591372576,0.017626273034009265,0
429,-0.04875833703603927,-0.09917260751865792,-0.07476003755623511,-0.1383771432647806,-0.10274626882819025,-0.057787930538045554,-0.09334731089282042,-0.17401482617006475,0
430,-0.15801803538031084,-0.0936152626666995,-0.11785783807665116,-0.08973237851940107,-0.09391375072863192,-0.04434742749328391,-0.13646108996109924,-0.11440981663454138,0
431,-0.041025729439495374,-0.004365447550858215,-0.05515283806761641,-0.038863335299321046,-0.1461365266043426,-0.169946989577061,-0.04196126262131641,-0.06776443600385412,0
432,0.037292050182761376,-0.02195789317140879,-0.012356952679900599,0.015019587910919993,-0.046156508970514515,-0.03571490993053612,-0.009979616474027422,-0.003233882182568329,0
433,-0.022458817310547732,0.12242615524128363,-0.02782812747799622,0.019378926150921086,-0.03556009943704258,-0.03607190915251424,-0.039416443235887055,-0.04763640115496885,0
434,0.04767521216472122,-0.008930220255866584,0.05161053682657676,0.01968814597995079,-0.027395906654502117,0.09605038900086149,-0.04657875176988498,0.09845979539350717,0
435,0.002497470900847811,0.1555823549360363,-0.078062345432918,0.08396665193084613,0.06270476607025631,0.06998569379020836,-0.001312856308543612,0.077017500091989,0
436,0.000412576582713417,0.021916561998731765,-0.010539578395537964,0.07500452327357834,-0.024156540769511188,0.14670840772792484,0.05874210286500099,0.22139904392824852,0
437,0.007876096693080672,0.021522009118936772,0.08982861425193692,0.06342337452417435,0.05633556446896136,0.023886764274522604,-0.10527980775058225,-0.03464076104047699,0
438,0.03149917764665287,-0.008856609692013705,0.04742108215192327,-0.005519129668638791,0.017398902206301164,0.024703919355885232,-0.0013422786015908142,0.016616432851821995,0
439,0.035193460701639104,0.12032947993466628,0.08243322324110462,0.0659614099211455,-0.03581997130457924,0.10078230444100165,-0.04694305271456845,0.07018787376693987,0
440,-0.029717734603970855,0.08240231113878384,-0.08341691749649512,-0.049894297335335715,0.025825132154015426,-0.004791892409497328,0.07256468555544411,-0.06327094081068248,0
441,0.0218745369914669,0.008506283030212974,-0.08680594748866402,-0.0010080784366652915,-0.05139910869510281,-0.036311773885271625,0.0077805573528701676,0.0022954305907423624,0
442,0.03599061717309117,-0.01738396004738068,-0.024405315529980893,-0.08135155987080589,-0.031170776964715666,0.024628857503097703,-0.02213199094634206,0.016439365393326237,0
443,0.03639392206126882,0.10054217648757034,0.08261627765852397,-0.024518860443667065,0.0036170351715690465,-0.01432325840444848,0.08889364136086748,-0.056713828835603206,0
444,-0.02727198975385119,0.002938073170961345,-0.003598137369699569,-0.08351316239159318,-0.1133428430105662,-0.01889585265332416,-0.052308244941124946,0.010683973144290666,0
445,-0.08427650329420665,-0.04876224025536114,-0.012803401782182446,-0.04043617887596146,-0.022859617061390714,-0.004368458944632554,0.011468306591356982,-0.05774528164623402,0
446,-0.03649953774270864,0.025652921577269623,0.04840831393534863,-0.0211671650555128,-0.007937784376685802,0.07831492427402545,-0.05722603207306884,-0.1030966617071199,0
447,-0.013345111509948061,0.07395591884054202,0.01615734741944151,0.06322590653307371,-0.022324202946893596,0.02240871802776796,-0.04265546011109795,-0.025326917792581165,0
448,0.01105013650789394,-0.04514047014302617,0.07994517396577432,-0.04129494820159779,-0.035598577956386976,-0.030843092449392772,-0.03772799556439072,-0.07550484224343892,0
449,-0.05090913571984015,0.0187376328673639,-0.041080631946409804,0.0013027313644296671,0.08922060583393829,-0.03943285407629208,0.03929942370536517,0.043742534540081125,0
450,-0.09651779696358528,0.03677068500887228,0.017890528989021992,-0.028926774256859755,-0.01051618904462193,-0.0220965482485149,0.043292927174000816,-0.0027503134586649666,0
451,0.029074302927712306,0.06510855591390692,-0.05040104256229108,-0.02799683931386604,-0.001403261294021807,-0.007462252258082025,-0.028184559936024957,-0.07078141466881711,0
452,0.015628075479158236,-0.023338957839840125,0.012400650109690901,0.01366035396595742,-0.04604887958412305,-0.01551973834804955,-0.08286538279211511,0.025598561231084643,0
453,-0.0515715312698727,-0.005932094236676402,0.05669786855736717,-0.10165773907712218,0.10069997506507725,-0.018691645110802624,0.02448661708176061,-0.015379737063467376,0
454,0.050890374202145296,0.001734374161552469,-0.04788111316135804,-0.03477198004452165,-0.036486950635901315,0.010128340948580759,-0.05117177343335212,-0.03592890754884936,0
455,0.003040698230894808,-0.08417617595953072,-0.007168662749594763,0.01045382640012888,0.024682144168193296,0.050736971007210606,-0.03264757955372987,0.01166087531544357,0
456,-0.012529328590369036,-0.03856843500344342,0.0102723356796383,-0.011762797762111804,0.04747008333353752,-0.01469847406510319,0.017688955818369535,-0.043865156256647636,0
457,0.05557546515475049,0.051186760901382286,-0.005441527463701692,-0.04140841059705628,-0.08513023420428996,0.03975096701036536,0.013777332794459845,-0.07824105899257824,0
458,-0.053640949245711896,0.09424553538419982,0.02591239824744367,-0.060890290192854565,0.002510909823780395,-0.009731674292148346,0.05009060846287636,-0.025450868348702974,0
459,0.013708811058199804,0.05873904359902234,0.039266142722901666,0.02598338557145153,0.06450344413308913,0.02575420259498733,-0.0033771895912797258,0.010743239627522893,0
460,-0.12496622204251338,-0.08525510912523925,-0.0016856693311766867,-0.11239277875575567,0.021072772319330395,0.011106726677138041,0.05987639543148856,0.040322379313087686,0
461,0.005043430308041981,-0.032588997044933427,0.014775534687689827,-0.014197389805324393,-0.01036708157380866,0.008524074255784596,0.005585833295524357,0.006306739413037933,0
462,-0.028681177504738684,-0.003963060645510054,0.057355343936789906,-0.0013486718919488458,0.0857011767178354,0.05132505594960022,0.014723701329809893,-0.009353590264338912,0
463,0.026397574061943235,-0.06252324921306542,-0.0034177874215338146,0.09772622781742747,-0.021266517356269807,-0.045336044055969346,0.16906247588570925,-0.0462222016183356,0
464,0.08323073937288633,0.05273035613530473,-0.0074446372470501,0.024809328250783916,0.058408792715672626,0.03695918629303888,-0.01016679506777811,0.021194600633521774,0
465,0.08680639184387617,0.042920573760404826,0.032147776762787635,-0.005248876674682141,0.04857937154420144,0.037954909677524726,0.0980424996812318,-0.009081783952755084,0
466,0.022717766495555566,-0.003540475514378062,0.08624927479222559,0.003355510395870421,0.029955406875080307,0.05530415317663369,0.017199396761941047,0.03258868477291843,0
467,-0.09668167098576858,0.03125641525309734,-0.0020925728708015784,-0.05539142148949365,0.08854273385514679,-0.021735423828062303,-0.02010000900061827,0.01121525970512028,0
468,-0.06565665380071652,-0.03999381311682163,-0.05142577176461695,-0.0032307007143159007,0.00312267762939169,0.017504681438214792,0.055446817031220355,-0.011377650988632665,0
469,0.02541841029809459,-0.008035442532189036,-0.015055425967649375,0.06649398608901082,-0.031068043528843743,0.006223119131166258,0.06305697522424644,-0.0911103014823207,0
470,-0.007995334546880194,0.04432130849628372,-0.032353692528700254,-0.06996329300472631,-0.06865120472768649,-0.057210827657126276,0.017065132338735373,-0.038841780750174665,0
471,0.013981317236057516,-0.04256968819653766,-0.054284521967934804,-0.02444264639610088,-0.02428695505080047,0.007617252970910586,0.061559175693794974,-0.025977367786355312,0
472,0.048973112598247485,0.05403446730279145,0.11975789362287922,-0.05728339504857962,0.05623511194708959,0.09950377796496786,-0.02001766200581203,-0.023997835270234684,0
473,0.002578785557857157,0.03423655750097476,0.07222708797556669,-0.056738682239477,2.6422045836509486e-05,-0.045921935670595056,-0.03636342445471876,-0.003603229542558472,0
474,-0.06472515017812228,-0.026176641277859066,-0.021564799824323678,-0.06685970150527101,0.03507201011980879,-0.055919507905773255,0.06763064802082203,0.07581752729118947,0
475,0.025351522707463946,0.03397247725957322,0.03426451898293088,-0.020644415615617088,0.017043784468463597,-0.06633250035244084,0.011538311406280389,0.09571926802539228,0
476,-0.004909576443408082,-0.10765647823828464,-0.05868218436343188,0.021054367256023034,0.04248281653022155,0.030438467303109368,-0.010109215293252575,-0.03653255393352669,0
477,0.07045481852201117,0.061652192574639074,0.02220062591808882,-0.006649581140985255,0.009774261728724627,0.05493863062678129,0.08812208543554137,0.0023799951455073156,0
478,0.0563572913648755,0.08525813580340047,-0.013435553669284362,0.05838988162920301,-0.04806175211774797,-0.01209437100985836,0.0305124739589888,-0.04069195635113925,0
479,-0.02227824013592748,-0.010585280511340648,0.02282010277384779,-0.0015698247377520043,0.015807306977611155,0.020652228856988065,0.044632218203928715,0.02120586829408819,0
480,-0.006486759717198054,0.04916398701389409,0.047601634686657145,-0.0778923879657864,-0.02727676342969346,0.05435418898080153,-0.03004249645572859,-0.04171805450782507,0
481,0.05047614449776278,0.012288770836992988,0.043846845674132794,0.02069552657695751,-0.040275553388487026,0.017512350978929357,-0.026690438517394506,-0.013957258773223848,0
482,0.0022491647819331225,-0.016620503435466262,-0.013197947776134686,-0.06718892090384879,0.003328524972935408,-0.06438828251794641,-0.1352736730764444,-0.035610106212046404,0
483,-0.039999846232285544,-0.0441025080428905,0.0065773956221112624,0.021240433114509995,0.030900207317746713,-0.009806079323985348,-0.003662377636496094,0.06807877852700897,0
484,0.08581256787872037,-0.04589427688716457,-0.04009490632524186,0.028880330480298873,-0.056463782355485846,-0.019904100833013808,0.051662919498172165,-0.006860723562088918,0
485,0.06444563394478843,-0.005126997341955681,0.022839981449286527,-0.019648362280507908,0.0012539136542003165,-0.02050314458929422,0.05229944781294394,-0.004888222209534926,0
486,-0.017524144461887395,0.08494354460603482,0.03846395162196231,-0.011731542593142488,0.06728668615219002,0.020517373001717538,-0.008600185228645552,-0.014348941648770895,0
487,0.05406078132715311,-0.03341704464344683,-0.009742724489574733,0.07104798245174433,-0.04557052390587138,0.02380763467912527,-0.0022228676111772506,0.005034275640065221,0
488,-0.012662056010556276,0.0140087037698066,-0.05437542188758303,-0.0570525549178043,-0.027529141008705564,-0.017385885254772974,0.1427569258256605,-0.047275410062085785,0
489,-0.02650004435782411,-0.0374687376170848,0.017856227360907834,-0.040963114730472885,0.04558412542102716,0.09960712257009433,-0.07728389526432022,-0.0031937155949898475,0
490,0.052259719050618346,0.0816375007896045,-0.06187418273942621,0.01593932439015071,0.024874880501318034,-0.02685261937398709,0.013156931985853661,-0.06001072865922084,0
491,0.061045567872555925,-0.04920123920775391,-0.024355411825328594,-0.01242745530887327,0.046757502485579354,-0.01984048899876167,0.07699864564231546,0.04634490367857774,0
492,-0.025905165572364972,-0.07922954518900618,0.002513315716635759,0.04556465117224333,-0.029692277874467474,-0.07012389571735018,-0.07273406294574691,-0.055611805569840966,0
493,-0.04387137746580039,0.017744161114635403,-0.03264283350052842,0.05787164340452153,0.04188309944231818,-0.061297218038174915,0.0023178565737647008,0.07530579210578264,0
494,-0.047375870224190215,0.03489531456895304,0.03769876523235785,-0.06428827725969037,0.06362082567370327,-0.14738559873073456,-0.0500452058222413,-0.03544760048746955,0
495,0.06710972451918903,-0.0345041412087487,0.1019137489188822,-0.03876720815041079,0.07193049475227063,-0.018460213541653607,0.008594736581456916,-0.04143931699881325,0
496,-0.02106261293631867,0.03401807188216111,-0.028198941848735108,0.01882148865001818,0.031969644989115746,-0.1171965426329365,-0.05185257954399478,-0.04253046495531173,0
497,-0.07339879002046369,-0.01347969240784885,0.029267876800966902,-0.0020066064066393673,-0.03962423389977249,0.08262351791715075,-0.007450069128667951,-0.0024853623381025673,0
498,0.033524317687178846,-0.025218320585784867,0.0001964116330326962,-0.10731434664280061,-0.022277785002535966,-0.0537789290751316,-0.021495396925094182,0.06069277501321188,0
499,0.07156017625647493,0.1328028901985639,0.14675577908298462,0.08403625308538132,0.03874522422552002,0.11486942879899018,0.06961748421961864,0.0872782800555009,0
500,0.17415295459871005,0.18648452362632922,0.1227562783017311,0.2012377513993376,0.1543453819447224,0.1965463002460059,0.12748839717417104,0.1420719066378897,0
501,0.2642233504967565,0.38329641563756867,0.4160489923963105,0.3968952023360697,0.379934056224578,0.35371483780949164,0.2880593490628239,0.33516422263074336,0
502,0.6404644194985315,0.6207250987128736,0.6242554780352964,0.6017090647172332,0.607089524151176,0.5702642313223446,0.6436331627913746,0.6078361448428298,0
503,1.0723188828254508,0.9854589985098536,1.0257591030746318,0.9807324862003538,0.9572948239759315,0.9733381858310891,0.9816891788920388,0.9469542132146419,0
504,1.505511738274518,1.5211001051560704,1.4757227557126964,1.367683909724043,1.4181897727688737,1.4900140917478821,1.397625407961316,1.514597791739344,0
505,2.032558810291093,2.115079688119473,2.1681550027193714,2.1363776537434744,2.04350331490023,2.0862309981683524,2.0409058367498,2.1344022406230194,0
506,2.849260363941176,2.859238381912288,2.8728612079461775,2.831455583126104,2.800994110307048,2.8478525811329787,2.8208824926657314,2.841210536351476,0
507,3.651042498320457,3.6046165781696877,3.713035487355147,3.5792017900548916,3.6772198081889935,3.668147347068545,3.6859466116275366,3.7022244597520917,0
508,4.598475039760155,4.5827683469976295,4.605552632670475,4.488838017485344,4.517949747431024,4.530162898475712,4.560404498772309,4.482159476591764,0
509,5.378863044846475,5.270650150446574,5.393886495531348,5.324817505034388,5.358560759206931,5.539351394102294,5.393802710970146,5.27137074044432,0
510,6.0547318402222725,6.072833360038664,6.07467619103085,6.070999294712122,6.050091964372031,6.074053524408704,6.143179766594133,6.0724882085142005,0
511,6.714313920695565,6.627792121254697,6.762336612558006,6.807799659943148,6.6621723833422255,6.645531741622124,6.700163676945804,6.622021828791662,0
512,6.975068432206248,6.947665481638666,7.016129499975931,6.951745773134826,6.991938676087736,7.003233555346839,7.00817177777814,6.956652127743014,0
513,6.797312091927546,6.971821638761744,6.798192894025601,6.8695455095349445,6.8546049103085975,6.884492757870591,6.966015460271855,6.939020372453363,0
514,6.45325268451239,6.428199851000818,6.44236568471897,6.391605011147346,6.409560382532926,6.374597068143154,6.384230458815826,6.45367475146124,0
515,5.640686731204306,5.592337936313299,5.464537834132298,5.476123394053394,5.653694264872098,5.623025568325213,5.59452145575259,5.576463119566574,0
516,4.464903865922436,4.392507671077096,4.481732307605298,4.420517805010826,4.4053088765980215,4.418687515296847,4.445079778718643,4.428030085735405,0
517,3.1295795400242077,3.1726872166713256,3.1688925452166554,3.023433474724102,3.1651481707738904,3.0548474824402745,3.208862487998242,3.084504243555063,0
518,1.6043458778026196,1.6691217018818432,1.6432937672095553,1.566767703454517,1.679935171312614,1.6810095779414709,1.5864841547989323,1.6882295425776213,0
519,0.15518488727207796,0.2541771732320519,0.20974965835176465,0.13961672767742678,0.1408065440572816,0.12999994155253342,0.09245019816650504,0.09752656103732671,0
520,-1.1005176619235113,-1.1643985807686517,-1.171535332657998,-1.109339803539115,-1.1225436556627413,-1.1074976064886646,-1.185538253265824,-1.1827733530981304,0
521,-2.129931416110688,-2.2824582833537903,-2.261199290172145,-2.2393931801506,-2.261138605434282,-2.234726192303566,-2.2086836293202454,-2.2141786890907738,0
522,-2.749217769780301,-2.868677945342451,-2.77991289870647,-2.8046755899339963,-2.7972152498557388,-2.73144180486902,-2.893490817400763,-2.7914501210102567,0
523,-3.0118501791511303,-3.031656899475407,-3.020645687828506,-2.9915390103763153,-3.007561641621793,-3.0494553732382452,-2.979978784648514,-3.062588314923797,0
524,-2.8429635633234405,-2.8682838322854582,-2.8125328485171366,-2.856007700947304,-2.8054750977731757,-2.751081245324569,-2.754638334448318,-2.827237158038393,0
525,-2.378077991031404,-2.350867337784638,-2.3509108677328427,-2.2955620791828246,-2.3482137047402287,-2.32840137123766,-2.2952618413188435,-2.338700365027792,0
526,-1.6212594574993013,-1.5439035921291788,-1.5500709772867456,-1.6235188326455956,-1.559763831942427,-1.5478740293855946,-1.7034009981214786,-1.6236738798883141,0
527,-0.7671647001017299,-0.7478664075266518,-0.7939858436788956,-0.7511701926497205,-0.7493704657278103,-0.7124802567053582,-0.6949274236463924,-0.6532820615500036,0
528,0.20349639318119983,0.08947761959924987,0.13179687072887536,0.17909327517818868,0.1752051798876073,0.12866683193766942,0.135030941085254,0.19858985483293268,0
529,0.9012404745110322,0.878360802857566,0.8198177479553215,0.7542450774923861,0.8812774729954632,0.963596789075865,0.90745641886571,0.8142908412912182,0
530,1.424053884964126,1.256573007323302,1.3943523428629496,1.3105616701499403,1.3534689355136997,1.4143691924649002,1.3648034029657912,1.4343966952675635,0
531,1.617882717215989,1.6164248191270458,1.6014219974376729,1.5823646334847594,1.5992257141145896,1.6898336782622914,1.5724239029649325,1.5845487152422824,0
532,1.4179724366761486,1.5746034372484192,1.5590866423234009,1.5235762902514005,1.5192676859647796,1.509608474103251,1.571778199663828,1.5002410734614409,0
533,1.3553264556224842,1.2794393394493035,1.1767941109262396,1.210127277985267,1.2946844346803519,1.323252289502035,1.2589712515108062,1.25479286184861,0
534,0.9303321976093079,0.9601458605032701,0.9140386951212586,0.8570498307472278,0.8724624024477239,0.9008700642984431,0.9130294249836615,0.8975835239156773,0
535,0.5244441083179439,0.42482349347286213,0.4303594559520042,0.4618048225725263,0.45252094329462406,0.3562444896277417,0.3933273131499835,0.50872594116308,0
536,-0.03200836833296065,-0.08161279761653956,-0.035637350958685796,0.02193733278520546,-0.08218099840478951,0.006522322403570778,0.09532940884105648,-0.007536880595382066,0
537,-0.4257026180848411,-0.46946313712636345,-0.422840721956498,-0.36852722539459987,-0.4940543139592065,-0.3847553514969067,-0.5238959858507197,-0.41422029601345717,0
538,-0.6668857233224009,-0.7397082598726793,-0.6268589181945162,-0.6636748155287019,-0.7111182529115285,-0.6394939549353674,-0.7197689740828183,-0.7023825450641757,0
539,-0.8317909024767398,-0.7544661913348075,-0.7647587500356121,-0.910394430269424,-0.7772725700740842,-0.7723139522489096,-0.7343262739162948,-0.7894329085616846,0
540,-0.6920145342750652,-0.715078200391171,-0.6770834380839137,-0.7059488683231355,-0.6563437317223022,-0.6639367950851152,-0.7022020052455595,-0.7691222829236509,0
541,-0.5135262322775198,-0.5779733837620128,-0.5019976831811895,-0.6301602711963442,-0.5863589739572203,-0.5779354077819938,-0.5628132745301141,-0.5891738055539765,0
542,-0.38174639946513433,-0.38879707383738643,-0.2963979465609753,-0.33350132587130793,-0.31871118786505204,-0.4251666319429212,-0.33448884952397917,-0.3933558359646486,0
543,-0.18488586970949178,-0.038737011225469575,-0.07300858714909884,-0.17069146255039266,-0.02174920513658929,-0.12697517662084093,-0.09967789864420976,-0.05228899930214009,0
544,0.027614336435135764,0.039742733043939146,0.0910358498586541,0.0647319485908563,0.0676785219632964,0.11782418724860813,-0.04032311521951401,0.059359834621908567,0
545,0.26834139925414946,0.21989832509430138,0.1523916972512918,0.24240809716083828,0.22340973411460363,0.16183329780054934,0.28625754267766584,0.17249055137825328,0
546,0.32167612167084164,0.21111380302490523,0.2876217237993996,0.33318841147692124,0.36470026132840405,0.35290012140147853,0.41173916293795315,0.25555106138017475,0
547,0.33461557964491745,0.31656863644531263,0.34336641807937246,0.33263217885430413,0.22872451391883053,0.27548134946564684,0.2674969389401058,0.3483986548890645,0
548,0.3081754499859104,0.2943524237305747,0.21494154107071894,0.34250908711381056,0.2739348944992462,0.3511006041904202,0.3157044773698707,0.3125608544791955,0
549,0.13210921700811315,0.14773187912963875,0.20266571691003546,0.14851267483461578,0.18150171261939843,0.12414800748837686,0.17479518659037646,0.18255428225051654,0
550,0.046246211402237024,0.12845504887007153,0.03629442182862087,0.0432492188640021,0.11465865891111209,0.16167756498431402,0.08370752445053833,0.13395705704542146,0
551,0.12333995525153468,0.02054838287859954,0.08475446680126025,-0.013676735672481465,-0.02583743282053372,0.004115581676664105,-0.05478695943258081,-0.03937725834206462,0
552,-0.13818736102237109,-0.06378699728262559,-0.0016466630773556631,-0.02477143392028755,-0.06664595010255706,0.0587616324209295,0.03767356301413003,-0.008835316142768362,0
553,-0.05954372973969605,-0.14551660873225425,-0.13161512740336118,-0.11660766649886826,-0.041054607636181656,-0.023602537901748655,-0.07351877461150647,-0.08694380744945067,0
554,-0.06813871673962507,-0.05320191645604292,-0.13618391182200817,-0.06127458289180951,-0.1269147688653167,-0.1385143126869362,-0.1754870835550509,-0.13194389731188583,0
555,-0.08555107598026172,-0.1340136196664388,-0.10824101055351684,-0.12107513493326398,-0.08696376992270857,-0.01124735248137014,-0.09569879781059362,-0.13941469265798678,0
556,-0.07822853206235889,-0.04364949610689193,-0.03161536127814497,-0.10577271211804203,-0.05379730624662252,-0.0719298049738432,-0.10833259724623709,-0.1130518331999542,0
557,-0.06777625677262512,0.10297760460475153,-0.1003845585263499,-0.04114347766613009,-0.06979478157618571,-0.015517901205455441,-0.04056900164482228,-0.10169188253564553,0
558,-0.05507613171612773,0.0323664033583216,0.02572693289058992,-0.182305691830024,0.008896184010415916,0.0030802367678665933,0.04570594472519576,-0.048928056308730275,0
559,-0.049939864732795394,0.018137367551403515,0.0295936954912042,0.10188668778261988,0.010288699304526465,-0.06673344591644495,0.15180191070459123,-0.10638962522853573,0
560,-0.010928606927834806,0.024828934390021474,-0.011350584592768099,0.00832123451176004,0.046626940571164704,0.00806803666565509,0.02612178783733255,-0.03040084808067992,0
561,0.006010863193053471,0.034069427048425575,0.020766480643549273,0.02342247652615774,0.009880638804600297,0.04746336409817291,0.004885460407091927,-0.0345178529273376,0
562,0.089758510350754,0.03564592936488355,0.03280632397269183,0.04176260838416677,0.014351878875583686,0.007956866804942585,0.014977428917582625,-0.012900164907799161,0
563,0.045356177917103904,-0.0487293812904374,0.12790092099862077,-0.10354444474702412,-0.05299405223717661,-0.12676181381662585,-0.04237115496531606,0.058266066619673776,0
564,-0.004753965711531211,0.02102963273756194,-0.06938015378920846,0.12617628223959684,0.035794662354045194,0.04926456553612257,-0.055244207157785816,0.032955777833284336,0
565,0.0076165515112241195,-0.04264576841597536,0.04085268856253441,0.07706559771849662,-0.0009699057327350255,-0.02064308695319855,-0.002239182139076314,-0.03446043942197898,0
566,0.04326587127852108,0.1289855198471093,0.01923558083941504,-0.02679739184470846,0.0014962891408412046,0.08328163666487559,-0.015301360918706831,-0.05935137914041606,0
567,0.0703727869311695,0.06066797276049292,-0.03293499674086235,-0.03183073217204285,0.03852650928214656,0.02884151239606288,-0.009691195107355803,-0.020274036618515606,0
568,0.0706514347095476,0.019500369841668516,-0.1828211375351959,-0.01057927670049599,-0.008715719545030006,-0.040823485201819804,-0.05187708083539898,-0.002513787145913225,0
569,-0.0026140624613315584,-0.008569654742745533,0.040396881975552336,-0.05583466700623087,0.026941311499161114,-0.031016392278187227,-0.09855584155594455,-0.05455562382961807,0
570,0.0038577558666318887,-0.03250890676164404,-0.1640985522509814,-0.049222601598950394,-0.04427068684873043,0.0591798460399232,0.06794070569562315,-0.06444785568231523,0
571,-0.07772232702300429,0.03508608523073697,-0.06760373615056718,0.014920219459671154,0.044056185447885636,0.014336792329766555,0.03838715136853401,0.012385657799736738,0
572,0.008773278035257077,0.004651493405822574,0.015344184369021057,-0.07190153799242659,0.009765528602337835,-0.05944226121027629,0.02604993282756029,0.043561095566615506,0
573,0.04299363686166617,-0.010302616945640353,-0.0007217898513407254,0.02324008968907033,-0.0011824859761419822,0.05578090469060311,-0.060558430550187115,0.005520065940261227,0
574,-0.05440508121699163,0.011767990168569891,0.09347530381086033,0.03770041361655095,-0.0002107837979608816,-0.029884224765830483,-0.021475905065517588,-0.0387159812116315,0
575,-0.020585666747148866,-0.025525851486039055,0.01733216911152238,-0.1093868962369165,0.017484349099007507,0.023143337033960345,0.042190576136731855,0.0554047149744794,0
576,0.020373728439989972,-0.012630317725661014,-0.012432716711378614,-0.0508909814875124,0.03760057211315921,-0.01873590133046851,-0.017950794712050893,-0.03369822856909579,0
577,0.005803683876597039,0.02221482071219363,0.03269062430708821,-0.00681509531902139,-0.011764781702439702,-0.08048249572313,-0.01826911799508809,0.055110230530495574,0
578,-0.02047107317130218,-0.045535115789234054,0.06264766062794076,-0.004975489455482733,0.005680501472262312,-0.015413863816831781,0.007048788733884254,-0.016403069434712023,0
579,0.006353379870416149,0.08875980416114272,-0.0449298549661243,0.03429167414695915,-0.07058314657973161,-0.0547148797142726,-0.016191190771199224,0.05395496706693617,0
580,-0.006383699326072402,0.052433873855237276,-0.01929133648963465,0.06911489483588763,-0.014322885911310994,-0.032545109233626024,-0.006511593073490878,0.08520110641300654,0
581,-0.04255504308744325,-0.05409671696595894,-0.04539851595955888,0.015962663320737803,-0.06619105415884088,-0.03446981459868012,-0.08611354847148575,-0.018844698268497613,0
582,0.09685649555986642,-0.07446892294871861,0.00322990078404549,0.037105580007367765,0.04587508516133931,0.058589166726067815,0.011479274810731566,-0.11763134720086339,0
583,-0.07130755528755132,-0.012345608929868046,-0.0017654742019529248,0.012793968725361253,0.06424834373376744,0.0725789014609655,0.041330389556541225,-0.06872442669734176,0
584,0.020249736405094622,-0.018093490208257398,-0.01748542696663167,0.010301638814254744,0.11066298517575769,-0.03433254326886656,0.00021877638229649078,0.025985117569340497,0
585,0.05066905750008585,-0.0737773164742484,0.08965954314767334,-0.07567392925937502,-0.010770827462828075,-0.01647349450426176,-0.02379645795746181,-0.09512317416818865,0
586,-0.040412921646765805,0.030521333531742134,-0.04934351940266958,0.04331219751464173,-0.03090924907306218,0.035519499973513065,0.06351710053600378,-0.010873766358268725,0
587,-0.015442348234869918,-0.08579823369744993,-0.03222589104451956,0.005364453414706656,0.06174592344760743,-0.01801444304691972,0.013136688729029802,-0.018092412685217812,0
588,0.019933976818673194,-0.05001866492757563,0.028761506452769557,-0.05348368236484699,-0.027312966364353805,0.03713508824000794,0.013007171629283209,-0.03432741794953707,0
589,-0.009530745720109817,0.004207971544325051,-0.03518875941984213,0.0050646777723856555,-0.027224420671735267,0.0835527520763533,0.007386940615939719,0.003503267385943078,0
590,-0.03698238704958995,-0.053566589037711665,-0.05704655622939536,-0.050901384108876416,0.04779038877555707,-0.0922872956955832,0.07018393369386637,0.018828745996479056,0
591,0.03643708896264711,-0.004662661535397381,0.01650377133869398,-0.10121191846828385,0.02442141576289077,0.04274419317073887,-0.024326633037751136,0.03431714575193727,0
592,0.04100982862208254,-0.008546022174247722,-0.02361519419243685,0.00528083971009202,0.020832846768284424,-0.0639990419289289,-0.004847543923350749,-0.0749942362370155,0
593,-0.00873220481714251,0.005510518987233545,0.018812381022340417,-0.058398643110257546,-0.005402110592781157,0.008446332779053494,0.0006754582183681228,-0.09219089063489064,0
594,0.06617927861365962,-0.08119645115754778,0.0006912225086854843,-0.0971601701081937,0.019779354846707363,0.002117474238724539,0.019565967364476106,0.0007008807827899713,0
595,-0.05577435715327384,0.0015203429178778413,-0.022569264341969462,0.02096912653870824,0.06011521975186591,-0.009223376355015255,-0.05879176942169799,0.0219309806185565,0
596,-0.03659735240358968,-0.018893895957306138,-0.04926803702082304,0.03231915858446239,0.014815998696528271,0.006511376661010846,-0.01427605948160512,0.0756929331050969,0
597,0.11175638254037315,-0.0008854183661706467,-0.057171351835580426,0.03907646347337395,-0.03994376336020839,0.08553829954829678,-0.008613117386417323,-0.028491967345407803,0
598,-0.055092967939146746,-0.08021521309661989,0.001178105034961304,0.042093756485746994,-0.03467831263975154,-0.015514048656142714,-0.01684113664847344,-0.04384607464329391,0
599,-0.06479361224875534,-0.013444813536294216,0.023934090339546764,0.03497269291727915,-0.01955348571455965,0.00358058401183308,0.025113146144222876,-0.008224219327894237,0
600,0.061852395668726884,0.02955956901023961,-0.07379238585675654,0.06375331563150005,-0.00894226396561215,0.0031100133138566833,0.1261886230485586,-0.07124700654290315,0
601,-0.026258872862225974,0.040723668681567675,0.01637961743378334,0.0060109888658347755,0.044029536676138986,-0.07024270398590948,0.04496630729069455,-0.031098003036581827,0
602,0.021445094217701112,-0.05433620540912867,0.011429801696450807,0.0600735122087723,0.004952592965557363,-0.003775855056437072,0.09475059491169618,0.0013761994992551188,0
603,-0.023397932929229134,-0.019585375908793657,-0.020791714888019324,-0.019085507896333346,0.024342781280025726,-0.0034318830509428677,-0.025315774427940408,-0.055856957293464966,0
604,-0.0006994250592253567,0.02908735467801669,-0.04932118195675064,0.01731097452416498,0.017575584473618348,-0.02485435801996662,0.015826452687046973,-0.00844897080141662,0
605,0.05122256714508459,-0.0297966955862788,0.004870963394383548,0.016972490733691642,-0.0215720736335955,-0.02691256013447351,-0.034859952565440985,-0.03904144507205785,0
606,0.014791689635596152,0.10506797401961086,-0.08434697171472794,-0.024787622621838923,0.07065683401514071,0.010109215787284354,0.04592659507951023,0.10809247060775597,0
607,-0.04225523472925465,0.007235941467124066,0.014677625542270617,0.04664507450152689,0.0047789896069219484,0.04611042827045515,-0.007638813627063573,-0.009027992336378838,0
608,-0.017752287759382382,-0.011309576536103674,0.025147918011548837,-0.04575605983764647,0.03747449073834006,-0.012525449668546915,0.04220591834650205,0.00573919988165202,0
609,-0.002669058092690044,-0.0773681538617172,0.03066310537450505,0.015459513483931138,-0.037675659791712036,0.02443015535316582,0.048085920469470446,0.11814371802271616,0
610,0.056545076307776186,0.01668868803968898,0.017719288667247198,-0.04952801713921729,-0.0047034366443710505,-0.04429386271652287,-0.008978787892561896,-0.002199104231430758,0
611,-0.016160590423552938,-0.022593721031148335,0.00252403589366305,-0.019784787014631513,-0.045918351444266314,0.020885952627381143,-0.045144711570312836,0.07482845759584966,0
612,-0.03387574496163379,0.010555216495854487,0.04742617967889323,-0.024014144355948695,0.021954151015444717,0.05732306273084709,0.032384232336437155,-0.0153543468425864,0
613,-0.04692975696574762,0.12388735133595202,0.028237444472937065,0.04970582367865318,-0.02656211487056054,0.05385371829229018,0.01569709892640838,-0.016085000265228865,0
614,0.049316118718957365,0.009670733888409291,-0.08382127362320196,-0.06105898862925458,0.03274112906166488,-0.06483153613197078,-0.0727135133964784,0.06809915950844188,0
615,-0.0724244703666482,0.11978853954547575,-0.03970224279457798,-0.08849593497867199,-0.008335198116337008,0.040675391951409706,0.038706095997248835,0.007031217603778383,0
616,-0.03958422931663265,0.08870218600336319,-0.02366075560250233,-0.02432739796472018,0.01797850692605143,0.027772472651889517,-0.022199165117371838,-0.022101262941399358,0
617,-0.052894756053182806,0.07580310631174703,-0.011734576298454787,-0.050852310657708504,0.036198126944150415,-0.0092785401667531,-0.037702845652708844,-0.02577897773046102,0
618,0.016956425924600078,0.02062536108942354,-0.0017495668924669553,-0.043684889563179244,0.045466673441103014,-0.040731002033283434,-0.04566293365983141,-0.014411442630098876,0
619,-0.06241767800903885,-0.051492856902732136,-0.00405091523181097,-0.013357182267766412,-0.01717842468030781,-0.015151573315046792,0.05950015239773993,-0.02219941476549726,0
620,-0.05226812389157334,0.022035259882173173,-0.027114047520048343,0.07334576128717009,-0.07609081652065214,-0.035107382525921146,0.0027135251629876143,-0.013124351238021793,0
621,-0.016160561606467304,0.0072203724867583256,-0.07045747695022739,-0.1218539361742112,-0.0554737838155593,-0.03203183133958526,0.04551126532699248,-0.051412761477796005,0
622,-0.05771652418428813,0.03915239251467682,0.014964564911610183,0.027501548070222297,0.007433135936633603,0.03807340789494461,0.05237375800666992,0.05082653159216349,0
623,-0.04519895975996845,0.07710683602909538,-0.12468182192262295,0.025373706356985035,-0.07003789748539524,0.00017321643223906086,-0.056365297710430674,0.06275049532574792,0
624,0.11134567118362318,-0.005983768591221711,0.09234845400631425,0.12023291362024491,0.11577606865917443,0.0869144518424097,0.12748167033153313,0.06880379521929257,0
625,0.16226961077268434,0.1360477774600542,0.21851354559963132,0.19119921167425113,0.24093368525300896,0.22751833165973517,0.11531712718434702,0.1730543346669054,0
626,0.3394087589792918,0.28093615919072845,0.24316420595038263,0.36161433546586297,0.34910525835129486,0.44513322796294175,0.43028159715770004,0.33983302617264,0
627,0.6624218719776107,0.6105513251351293,0.5543243127203363,0.6130267569182786,0.6126668974695075,0.6283452879524813,0.6521822206685168,0.5584326212883823,0
628,0.9317180898855576,0.9803076218989605,0.9372008861168207,0.9212886344686473,0.9129615263562771,1.0082258922578253,0.9598634601719576,0.9897036966277096,0
629,1.3829102355436076,1.414024344023751,1.428286388739862,1.3135522614341975,1.4473103286666622,1.3959078073391082,1.3972137370760531,1.369596721936127,0
630,2.0626150027572763,2.0071271476884305,1.9077671618361556,1.997551738737503,1.9230723342503644,1.9652176822902183,1.889761945190862,1.9832886004899173,0
631,2.6961428964944734,2.7114119236170042,2.7771729418406377,2.6859195012674535,2.7150221364945057,2.817032480152941,2.7785842548879423,2.7722600676355347,0
632,3.5368853529320243,3.596193971343557,3.5382817964736555,3.5586718193193603,3.665053158395369,3.582455574902466,3.6920438528374495,3.5722650776334044,0
633,4.376419774572458,4.454204564611482,4.484372417750915,4.5279871433205825,4.434514487854227,4.3895072565059445,4.427362659836216,4.407827689366355,0
634,5.240665581402895,5.298061180773608,5.255576690602916,5.315726150161133,5.20696585320934,5.282891662612083,5.29618471854517,5.264508788835488,0
635,5.989838229558627,6.03485806203147,6.040298447044526,6.0753031208291945,6.041568956673514,6.051690715810124,5.99854118101528,6.013035039390103,0
636,6.605115166355161,6.526703688372757,6.65283672155912,6.5380203853822065,6.656573109885751,6.696850183917899,6.6667051296039075,6.58768247716979,0
637,7.013510705060616,6.945794144375526,6.837578350381474,6.963983616053224,6.9322619687103275,6.945423757696097,6.893930411431522,6.886321541309428,0
638,6.920179420122414,6.938164164096148,6.936440191970374,6.903443599983836,6.959748551379218,6.909315739603956,6.9147323309250215,6.885723139152314,0
639,6.472326865734201,6.431946841380644,6.589483864807313,6.461559426470295,6.590989851080589,6.471367972444775,6.549423620755886,6.487363638409378,0
640,5.708282721942549,5.643986397099029,5.770026053373075,5.694013656681352,5.6960109445220395,5.657766482994747,5.71937279861973,5.71624179679259,0
641,4.537817938116797,4.647804056485038,4.693498818115934,4.64664837862556,4.618165303422846,4.6827515058437985,4.680446328258023,4.624056949162634,0
642,3.3214038754924022,3.3637084086329874,3.216604383759737,3.4053537494250925,3.2269637030814833,3.250621527424101,3.2597664709481204,3.321925874939831,0
643,1.7229499191091358,1.8579082831764362,1.7988935731737679,1.8632717238146352,1.7906788139495102,1.7756316382928303,1.9023188034473044,1.771522950521121,0
644,0.32622223864962085,0.3854152261777311,0.36559330938434714,0.35898845548416614,0.3921894110360982,0.3300168214915544,0.3801726108324457,0.4110340048417587,0
645,-1.0265874015552683,-0.934766124501083,-0.999568613615526,-0.9552612886957228,-1.018381186873419,-0.9990138714589258,-1.0507441231567345,-0.9214956087737739,0
646,-2.104835755985386,-2.0564913203263817,-2.1231696371161264,-2.0827854601217335,-2.0683455220317306,-2.1722366687161463,-2.0077090282024472,-1.98620135758095,0
647,-2.8184715868375605,-2.830640996956773,-2.7235101442764416,-2.84113230157125,-2.6619511628912123,-2.767087457653807,-2.8448137307455785,-2.734011352993891,0
648,-2.969689898378216,-3.1225033253712153,-2.9061790196444375,-3.010563218436471,-3.059550361480471,-2.9538876816578186,-2.9440312766680905,-3.063174602108281,0
649,-2.917501108357111,-2.8962686662099975,-2.9013232258628867,-2.833200479278192,-2.7960290629423374,-2.8580735912896866,-2.8735600247970634,-2.751427614396653,0
650,-2.4001310521991295,-2.4379773946592764,-2.449958828567778,-2.3300144248946544,-2.526387897124523,-2.421128480675646,-2.4875597754271417,-2.305271227195816,0
651,-1.733642624910808,-1.700821875066354,-1.7305959701092521,-1.7227741078794767,-1.725183363350376,-1.6947917245234576,-1.7639881756362414,-1.711450880115141,0
652,-0.876013510304248,-0.7773874266859186,-0.9199628628968151,-0.8882894894259425,-0.9023537820921752,-0.841786345015639,-0.8933526909160632,-0.7931936096254112,0
653,0.10290179045049316,0.09750072484030176,-0.015135402360189308,0.05777867561554791,0.084645163382285,-0.023984878493704165,0.0032831436266414684,-0.025496019361874636,0
654,0.8095448228919698,0.7861414129464216,0.8320710276822273,0.8435598681318343,0.7111322770712717,0.8119445565851569,0.7557706338517303,0.8099020699864121,0
655,1.2926320282545742,1.3253083682812892,1.3721160331841766,1.3309943205807182,1.3034914618022306,1.3459839605392183,1.3180079084390126,1.3008066730072123,0
656,1.5872922595815977,1.5860156516354558,1.6516147430690489,1.5764397259591991,1.6040645885668499,1.5392840389236686,1.6038278996030688,1.598591679637434,0
657,1.5463912722191562,1.6835021082642347,1.5649775525284375,1.4584049597496378,1.522347928669828,1.4517581980843093,1.4885240034533085,1.5548619986203862,0
658,1.2855824361434711,1.3032199564859765,1.2510224080462076,1.2855644715747336,1.3566622558336545,1.2819308193114,1.323540435763459,1.357769554697666,0
659,0.9035138156110102,0.9789894950133411,0.9399514160511173,0.9670680648416435,0.9287344163676237,0.9230372340767303,0.9517184462661552,0.9022607742004263,0
660,0.5797901508889763,0.4843980219936123,0.41960907245821877,0.46507476448054,0.43583719962726153,0.38407149969198123,0.4930194049627979,0.521676434951965,0
661,-0.01761983943232766,-0.04377374375597162,0.0330857041880182,-0.032090180707795124,0.011854018368842386,0.12498975388172442,-0.05300401130945445,0.05489235191489463,0
662,-0.40012125395497095,-0.41297212189627114,-0.35002561012510636,-0.2980171764550176,-0.4162096722484074,-0.32907191530563784,-0.3912697747276853,-0.42438958931007303,0
663,-0.6334369705637568,-0.746158170075945,-0.6418891777075146,-0.6840369093070056,-0.7373544356104206,-0.6922256527962121,-0.7381751280318354,-0.6099869097903142,0
664,-0.7942046029619865,-0.8130762766310756,-0.821884528569334,-0.7187872446143736,-0.8552315217430886,-0.7633185008538802,-0.8091865101042438,-0.8259837445181688,0
665,-0.7943289784404278,-0.7343790574308099,-0.7223151915346968,-0.80085242700893,-0.7710888816341196,-0.6793534886501361,-0.7609317508097894,-0.664476587602708,0
666,-0.5989638975461041,-0.5752749295103965,-0.5722339368146996,-0.5731811905212071,-0.7491223289077037,-0.5780126796520054,-0.6811166171100183,-0.6012980978804066,0
667,-0.3624927529794733,-0.36153875756025233,-0.3879429787110801,-0.44711744958771305,-0.4034879138961834,-0.3945613019110833,-0.29122501125222633,-0.38886643369604507,0
668,-0.1527233360963443,-0.16540843160237967,-0.15769853222990593,-0.1320620804194778,-0.1258748634248638,-0.18553484780847518,-0.2853151212642796,-0.12178169790410662,0
669,-0.009860669341370788,0.0756871707781889,0.03197356860576092,0.08642049714910421,0.01581165966930053,0.05318463442141902,0.11381469915302012,0.07283671671829609,0
670,0.1477281584389869,0.1793070910001181,0.27986381031946994,0.13493050101518497,0.26066348615012014,0.22925888602076272,0.21513249931888223,0.182195146388286,0
671,0.307310585223761,0.34317930959063003,0.28012472652426806,0.3469924319801611,0.31057418553230387,0.3394206072263928,0.40555203981340715,0.23892813455348022,0
672,0.2928426170624111,0.39376111259047136,0.3965281667403576,0.29239663098736934,0.2801335177056108,0.34293315146239756,0.40878440036861474,0.3663816585762596,0
673,0.2327822654238143,0.3747607362880634,0.2841172042441039,0.35144469337722706,0.24816902566135404,0.3498854693228454,0.2732341268747012,0.31093001129128056,0
674,0.17334848145186874,0.1847970126853093,0.16417573250580214,0.28125071114683764,0.15071692173862536,0.2922334361660384,0.1607767784182782,0.22027487379854824,0
675,0.1181754254670036,0.05647150687913725,0.14672659157657442,0.14046295825798563,0.10931839978949436,0.07181052122910073,0.0680413009154039,0.05511411308403115,0
676,-0.0011188657626440921,-0.029455229498041746,-0.047783499075892806,0.1123132993402749,0.037258283130120855,0.08470330417532292,0.04922149401414927,-0.05419830720403094,0
677,-0.09356114425995207,-0.004464813263854499,-0.019407425515242972,0.023052365181063413,-0.003205409003300623,-0.12523723095133876,-0.06276543140925073,-0.12657953668094113,0
678,-0.0799565837765073,-0.12031314392875665,-0.06775029360265679,0.005301205365229725,-0.12583611505180778,-0.14051971083696324,-0.013420016979804938,-0.08300407212829988,0
679,-0.08613293094516687,-0.07806534758912168,-0.17624334192027197,-0.18203587531279114,-0.16010306158675558,-0.08252334924712956,-0.09999943801932358,-0.16229745085911995,0
680,-0.049692674393519945,-0.12797423344337264,-0.11759803278336997,-0.13838363054667024,0.004508400600875692,-0.15075410727836042,-0.1812105468488106,-0.17775837376943832,0
681,-0.10962975987861949,-0.15192024580444696,-0.038010317228994145,-0.0998513954684633,-0.16152364682630724,-0.09322875595664884,-0.13330516207834506,-0.03550325407822909,0
682,-0.07812117933753429,-0.05753849458024162,0.0018085275043246418,-0.0012511241887508476,-0.06927421247713617,-0.09957394365835995,-0.06100559252055193,-0.1232108943509019,0
683,-0.003239830862534458,-0.016098350977584594,-0.029196687539474526,-0.09120726843097363,-0.011226752012594713,-0.016166346918785202,-0.11810216152896058,-0.08099769619330642,0
684,-0.057832842956926554,0.03340101647922424,0.017749485654185694,-0.09218576251695337,-0.013492531370579645,0.03143480541159345,-0.09095107702215835,0.0073800815784441426,0
685,0.053583976679000764,0.11664962092431298,0.053300764935125186,0.003956198940244734,-0.0008060452454153079,-0.006865333819003758,0.033542529970055496,-0.012082903451458075,0
686,-0.026679515209172777,0.006664793376234383,-0.028777708424536655,0.015268781111796553,0.10587619551246098,0.01782607383875416,0.04669868350019539,0.03099862006505786,0
687,-0.015041034701789191,0.019927575027787865,-0.0251477339924448,0.01840966242796734,0.06842508459947469,-0.0032933198833698107,0.0679407813174925,0.08310824602185306,0
688,-0.07857074202692513,0.07045149916305575,0.018741164949602263,0.031648473664660726,0.06495646270195285,-0.04684809740046783,0.05957927098396015,0.06923359077719157,0
689,0.05609308242802427,0.0069268303738514985,-0.04540566499700234,0.0967038545785892,0.06659664957548896,0.1238100284616328,-0.004466884567476948,-0.04840121116221005,0
690,-0.05696133202578154,0.013247157748518998,0.004645320875145331,-0.032359204566429205,0.036706602518729994,-0.01564193071364786,0.03284617947453243,0.07792263389704882,0
691,-0.06675857932239218,-0.09000761545483783,0.04167133933449335,-0.05118711673733275,-0.029376242097596924,0.022193288766068315,-0.029458621760494106,0.07733279509052245,0
692,0.06831942796711599,-0.061910906806189527,0.04000528358541091,-0.09904136588542858,-0.008227544373472596,0.04802629123861973,0.06717839918735839,-0.02918073565489784,0
693,-0.01800083489686328,-0.05596516665808782,0.034102032527213506,0.012574519496902073,-0.08308932413113991,0.05832241404514816,0.003175927225560567,0.040278168739329,0
694,-0.13069767518961875,-0.0540754096790287,0.03668252218646931,-0.06785508561830023,-0.04352605255086232,-0.07771182980901989,-0.06050382838121533,-0.09716109167382478,0
695,0.014339265673074215,0.025003977038968665,-0.05181587553402173,5.739367970882675e-05,-0.02645893788991395,-0.11887926386772288,0.04429870861759408,0.07542693507777032,0
696,0.026823535830070876,0.009895585481587628,0.05718262046413112,0.024401565157417374,-0.015897395740012338,0.0547508458189297,-0.009743719242241147,0.03731662958299861,0
697,-0.05599645851864278,-0.044024182111088384,-0.05845684774666585,-0.05388749482849123,0.004231298326217172,0.05970071286744109,-0.03378370821111604,-0.0008034809022472907,0
698,-0.05011522011561064,-0.030698767152339112,-0.04804040408963601,0.009516634235625283,-0.004698440468943954,-0.07215837978848169,-0.019486994506040557,-0.12042221210819587,0
699,-0.037836976404889054,-0.033414810277837256,0.017630335719204703,-0.11354814522320061,0.050707867251878355,0.03508396156498459,-0.032771393710021614,-0.0137565000487037,0
700,-0.019574287289606414,0.03888727312160733,-0.03367710266876708,-0.0034825210038626916,-0.02472890035577969,-0.0007788261143342968,-0.009626108922149577,0.10138860619222086,0
701,-0.00849877909115083,-0.05925848451336712,-0.04037532835150221,0.005729919262802141,-0.0749640129382827,-0.05259451037862688,0.04020989698521281,-0.0005511121991538256,0
702,0.05318516502057825,-0.041723506111017196,0.013352139712269902,-9.247489738367794e-06,-0.012605958645476924,0.039747646612734326,0.00802423689237714,-0.028994453665186302,0
703,-0.03252516595810512,0.0027722607799226407,-0.04085070292549218,-0.004247691624792239,-0.03559069011989673,-0.03270796209639575,-0.0009963813483138506,-0.09181284727178432,0
704,0.09270301650070309,-0.029372987987304474,-0.07997429148130415,0.01136373973824573,-0.007527158760873155,0.038044622827074034,0.01726119161682774,0.09394207745424973,0
705,-0.0035360300068983086,0.06836405200528381,-0.04981505987626381,0.01052619000860611,-0.009340613233668131,0.028749173871567692,-0.017688968882362502,-0.08878491752561908,0
706,0.006400925161844054,0.0007644151118208482,0.01669354750974269,0.04082957752571479,0.0263942448978257,0.0726988889529913,-0.053358887651431146,-0.025456067507220938,0
707,-0.051550845225574425,0.004701763082899027,0.00038972524007308636,-0.00010202250351857642,0.005620600958101652,0.028873732848009998,-0.09165879204044682,0.0075614353802111655,0
708,-0.022460615041557472,-0.014074137998903325,-0.05729188003571722,0.023611325307652625,-0.002296012287409794,-0.017804907117164946,0.030072471764233895,0.028819130027605472,0
709,0.03693516075382944,0.003256077686035084,0.015282265565561346,0.01137757976230343,0.0016028928576426993,0.024798729073226222,-0.008329905008347325,0.03180281771199626,0
710,0.02485278885623419,0.0900608520051235,0.03128654592544421,0.028749276862534864,0.029701925354234906,0.022623862214871754,0.016532446587589223,-0.016977017426752516,0
711,0.03227201494104873,0.055625428411845694,-0.10102906660485633,-0.0793529586294635,-0.06447625772398055,-0.06094296733722356,0.01570944087359477,0.002112292948817156,0
712,0.08107780251069922,-0.025100600006054335,-0.0797462027777426,0.018583987669624765,-0.010886935126428054,0.11662299632588496,-0.008524088213825352,-0.09276730650763235,0
713,0.13372270401011305,-0.1176353336495459,-0.10586969000114219,-0.01761623643311801,0.03516988079828527,-0.09328138438482192,-0.019837159917715185,0.01963029907652959,0
714,0.030885537812155885,-0.03447744425130504,-0.0207775748360391,-0.09134781305218347,0.04225532338195022,-0.014978203039748127,-0.006900558570919853,0.016935725886966957,0
715,0.03611748794642585,0.04777382157943383,-0.031646430199333594,0.0254691922964656,-0.05134020113175076,-0.009174268947067727,-0.017664983252234555,0.02173895585678954,0
