timestamp,value-0,value-1,value-2,value-3,value-4,value-5,value-6,value-7,is_anomaly
0,0.3271852363765312,0.29379426859227414,0.29156654809095267,0.22248479558351536,0.2541586840151218,0.22801170744017793,0.29276772831548215,0.3167182498338432,0
1,0.3712611543797825,0.4334900816998348,0.43631773985222827,0.3450836961366384,0.4101599895154044,0.31580155405327837,0.28578110679975594,0.40491031960335216,0
2,0.6270375427115423,0.669632363638845,0.6380264829240019,0.6590889406950314,0.6985578551394914,0.6121359562100093,0.6183427817012834,0.6774915206366959,0
3,1.1293030603376106,1.1489852131817262,1.1324734954755005,1.2658346295961893,1.1695501478134014,1.1558753742992212,1.1651116509600405,1.0797039196749423,0
4,1.8349621117205106,1.766307185288106,1.716679288600838,1.697900289559675,1.8370920692663326,1.8475916009601279,1.6505416319103907,1.7716012942570083,0
5,2.537288734151488,2.618603809378632,2.506761939548716,2.50304319562106,2.4742400170619403,2.4912592952181973,2.4757913750422613,2.4751300257282574,0
6,3.316481077127887,3.2921237345056555,3.3995836932024224,3.341224517427511,3.3355648926005914,3.332452772930456,3.3241148864133416,3.3261340422766468,0
7,4.085412819397737,4.1600781905291315,4.18123597001952,4.274422773723216,4.049544528358785,4.091994924712989,4.0365656885420895,4.1985498264847125,0
8,5.079399467931384,4.985473645631993,4.92465141332798,4.8938853954198285,5.0747781837382435,5.014749800777664,5.01316089468326,5.007287303904611,0
9,5.779896523500076,5.7129868238009,5.752580529996455,5.821869548086379,5.882718158675832,5.72928317517396,5.722510058961898,5.727577019470782,0
10,6.443982620310018,6.374011721854115,6.37464969275236,6.44057375237797,6.477786374672155,6.461005717439194,6.488426650565427,6.433984115770135,0
11,6.910193138316296,6.958815241569338,6.8732703794180745,6.778074157647395,6.8934177839108095,6.8401233717444345,6.83062909423964,6.840303251456831,0
12,6.943289715687838,7.001073080161938,6.95312409668924,6.945576479160302,7.017255085492344,6.894267718139153,7.089150156904404,6.893029414741825,0
13,6.75841234720685,6.703246420588438,6.670984318724803,6.613330491996397,6.707555097387749,6.774059294546674,6.697042416131928,6.724130692640317,0
14,6.130585291236228,5.928351013088574,6.076005081292138,6.065626453333764,5.986974385131166,5.969400763963877,6.00161601329414,6.001579065852228,0
15,5.0477057335252375,5.015502353153617,5.046858004971186,5.066799928429949,4.973294027171874,4.971009738938037,4.96342683330829,5.065410736299887,0
16,3.712307840819319,3.7588082418272344,3.8283703192729033,3.7951299642286407,3.76496293537504,3.688867076399623,3.7579731178740423,3.821176007406285,0
17,2.3718840793079234,2.3272653367233826,2.3763922219783162,2.362867294699175,2.320277592403824,2.363975289012037,2.470253999942761,2.3952097768396605,0
18,0.855428361773118,0.8208923988545203,0.9398627383786617,0.8492833206269436,0.8014878588412235,0.9220266727351847,0.8241440869050605,0.8427508956824825,0
19,-0.46828532302629633,-0.6492488899102096,-0.4825380849887627,-0.5227625110204727,-0.5576916185622989,-0.5537094556444474,-0.5070864389436734,-0.5288309322576148,0
20,-1.7400670895692416,-1.821953623732573,-1.7088130361759832,-1.7844328729681735,-1.7387668942572667,-1.6825101255922719,-1.7450962420059317,-1.7670340088053715,0
21,-2.536529525730558,-2.5772484288914828,-2.6507456952478368,-2.5280765409579176,-2.5876965497830433,-2.551968851979843,-2.5799819954608023,-2.5669598440314325,0
22,-3.000713591500797,-3.0057013932327394,-2.9222125277410806,-2.9569760368486278,-3.039651217415824,-2.963267976790047,-2.9958954380189313,-2.9577337406408213,0
23,-2.9434559380664713,-2.9654166335313397,-3.0021303337655088,-3.0028431192607643,-2.9668445129652823,-2.917459720154184,-3.0201843266293342,-2.924589653530909,0
24,-2.6123301735112086,-2.673459881473131,-2.5938264027740714,-2.587974519741657,-2.61097571436956,-2.667472081067968,-2.5766401835256127,-2.6398837905083323,0
25,-1.8875519649614318,-1.886163909897311,-1.9382637964263778,-1.8972728527737464,-2.033840886347142,-2.015517252956386,-2.0549502257450825,-1.9969474519412909,0
26,-1.0998347734112761,-1.154042085560315,-1.1759177412080914,-1.089012868570988,-1.1747065844386417,-1.1804472580196634,-1.1492380448604116,-1.1961004683665606,0
27,-0.33994433255428397,-0.2561519891566221,-0.3245273345022833,-0.3241766607439437,-0.35513849328769204,-0.31360889971715555,-0.2977164558405449,-0.24203189308340411,0
28,0.4834881048435534,0.5550940922083895,0.576517268272846,0.5332706751219034,0.514877288569294,0.529204102154694,0.45814076557097816,0.573594472045889,0
29,1.1347216898712933,1.2017641052983068,1.2102391833708064,1.1930765805711478,1.1662990605901016,1.2318102177743835,1.2598760200814314,1.1928469426163915,0
30,1.609789752434767,1.536815999316109,1.4335555654389107,1.4571118675406918,1.5053743774699555,1.629098659823527,1.5970094767236707,1.4166863954070663,0
31,1.606169421888247,1.6137270545960574,1.6131390877112919,1.6100467885952576,1.519242796666481,1.5694906652535134,1.5946416497990141,1.5684540116295547,0
32,1.4234736417711333,1.4851603324472138,1.3468438551934483,1.3768634821662138,1.448250359723461,1.4473730397581506,1.3524456158449898,1.4011395437690235,0
33,1.151216817317656,1.052078250299622,1.0657905175311546,1.070351356616657,1.1255545302093715,1.0328960781603886,1.0738943616725558,1.106511793511651,0
34,0.5863122615226315,0.6025497570636692,0.7354517915365033,0.6601248332112384,0.6176365058506273,0.7359010835572771,0.6789652410601332,0.6234104748184078,0
35,0.2646952845262372,0.17313804281469714,0.14437502482778114,0.1115333096734804,0.10860405449834262,0.12596338106149121,0.11504572946440364,0.1992212715850309,0
36,-0.18925312910312464,-0.26876921511797075,-0.32798533003444136,-0.24246270492939523,-0.23112903238219937,-0.24464911206336704,-0.22955282879819494,-0.27025247366135224,0
37,-0.626586406994289,-0.6153143224704724,-0.6342994989756452,-0.49331054486480186,-0.6506854615663829,-0.6713299372475156,-0.6672252593960118,-0.5796279413125118,0
38,-0.7846627461212254,-0.7037804580124453,-0.735586047589438,-0.762969319989757,-0.8030151083150797,-0.7573505207384345,-0.8243644975553599,-0.8010664231913809,0
39,-0.7189279823958098,-0.8001937771576685,-0.7077761147416213,-0.7766168652032676,-0.8178796532513383,-0.7265618322409181,-0.7891592502595676,-0.8037302551352135,0
40,-0.6245679806698151,-0.6411950014781799,-0.6401310141965154,-0.7023359507423049,-0.6533629539148902,-0.6087995077939458,-0.6439310515641968,-0.6141749406566689,0
41,-0.44861811109086175,-0.47324918945541183,-0.4775383172479723,-0.47839912698156295,-0.47069240271041857,-0.48774676427568286,-0.49376973368376614,-0.46369062884596735,0
42,-0.27558444671585064,-0.223108757144669,-0.24133985082690879,-0.26591889778232464,-0.2861944372428301,-0.22661281562660449,-0.16983114806913058,-0.22081657480746164,0
43,0.044849660980793044,0.005045370637723614,-0.0004963720940147701,-0.03673739786894363,0.03645756609032408,-0.01778467586166459,-0.07190625040621836,-0.10509545469515816,0
44,0.13553617791691788,0.18153810060184122,0.11349293223377205,0.10301487662126,0.17554828451286825,0.178146590071897,0.21181728505533254,0.13299600432882833,0
45,0.3004390567951734,0.23631799626381605,0.2619920957169635,0.2960433090226522,0.31559717323286235,0.37323593084917955,0.2946006631014173,0.2626442722747596,0
46,0.341656306803194,0.23303098445704334,0.3713733578427224,0.35182081587182507,0.31875724597284033,0.3136479630255776,0.3829034060566495,0.3832249720014499,0
47,0.36186299585754556,0.34309472185232026,0.3671739733569249,0.30304747828709805,0.3146617363664998,0.2977332105932145,0.2304915902884423,0.41921130145860663,0
48,0.2401297180745221,0.21292836479011956,0.26061910211396583,0.21419184051207033,0.21177616246804942,0.2548027626450295,0.21029531569396998,0.3117128900552414,0
49,0.17167571275931198,0.13675758202298383,0.10068883246547408,0.16314265712999151,0.1669602829943518,0.11295441971909831,0.1731597635775698,0.13976567717366342,0
50,0.03829438071392059,0.06462946722727618,0.03584293194774439,0.07678985751923437,0.015671944355219763,0.008044446407366297,0.021249457549719193,-0.05306524544168628,0
51,0.00041126023243571314,-0.12456582421275729,-0.017694589261186475,-0.060859954107019776,-0.05559479473458433,-0.014955558155796234,-0.03719713282866717,-0.04412202994395335,0
52,-0.04495639619994273,-0.035596693335560294,-0.09441066969695619,-0.07826990660722567,-0.061880065808157664,-0.12014958006482307,-0.05501570871532685,-0.1959110317172995,0
53,-0.05866047464365762,-0.15300070167893046,-0.13966151694048576,-0.024208701274063563,-0.07455213833244276,-0.09806107134539516,-0.09411862784551023,-0.04129831908107193,0
54,-0.11979840181249672,-0.08480938204855198,-0.08589352727323178,-0.11360193302914469,-0.04158336425812331,-0.1804437778414355,-0.12069268930514132,-0.12223624597334158,0
55,-0.024178209246161264,-0.07887669643273121,-0.10974862333702826,-0.1329993121044355,-0.08873963292942542,-0.05262016281122002,-0.080106490025601,-0.09584927954814781,0
56,-0.053594961757302044,-0.018061448768716223,-0.07866175835253565,0.01378671874581032,-0.0723301685558993,-0.15949742924621607,-0.03963469441801057,0.005022746663964878,0
57,-0.031967457441154805,-0.0852097322320462,0.02770209130659075,-0.0017976545750863458,-0.10239361119792126,-0.07587003466582559,-0.08155318360883021,-0.008858813865292484,0
58,0.0027539884483168894,0.011257739516977585,-0.04791181278065573,-0.06339279766823246,0.07307886641233924,0.008266660815270721,-0.07423037869244697,-0.08040555102232898,0
59,0.08478299864247436,-0.02251649282405198,0.04431355565758403,0.010775614800990856,0.010669920313486458,-0.0006780933648010412,0.017775958856113577,0.024285962417751925,0
60,0.0567081006620293,-0.002509694785566223,0.053260036578841284,0.006053723205735554,0.04062039454843424,0.06750928844285706,-0.0031083679612586707,0.0179954514720908,0
61,-0.010620306400701586,0.055916361743486825,0.0019473110999495384,0.027025963418242843,-0.03716115628819778,0.015231929072846866,0.06828115567096907,0.05974490251167014,0
62,-0.008151336432111543,0.03414631296189853,0.09028911421319853,0.0658238760227597,0.041410727472510414,0.0651312460496446,0.09087705799675852,-0.003749027500881519,0
63,0.013944242230133484,0.015044060416882759,-0.017792762077127006,0.08595293198582173,0.02529017997025346,0.06567531027461226,-0.011540002660421055,0.07142642144662348,0
64,0.061797386419414194,0.007060784044315122,-0.06738468673456052,-0.012828207816874694,-0.11448947538485452,0.013863297807699931,-0.0059859353733807755,-0.05423759772857418,0
65,-0.010072732731815064,0.042926659793689224,-0.020169738131115902,0.00789809665096238,0.03662200933755576,0.03534919872562973,-0.014821017625468556,0.04767956179748039,0
66,-0.015243440085146054,0.04462655425365446,-0.07088784793978252,0.006805429545624982,0.005282573677788424,0.03629239903699999,0.03245128813485972,0.026711096723122232,0
67,-0.05711199222398815,-0.004079873451905475,-0.02537357655617709,-0.06303577680317111,0.014172438899458566,-0.02157816535902593,0.016910725460531566,0.016998840553580533,0
68,0.04633451842044423,-0.0474863623808905,-0.08020118712944575,-0.02864332219788146,0.06489610411159456,-0.021021078747236827,-0.0037512231305986076,0.017844370233265138,0
69,-0.04021975648730358,0.01895720691147553,0.0003180256730837168,0.03062022903226601,-0.017904282354084,-0.03579585156648479,0.018819925009269763,-0.021254254799457327,0
70,0.07576294659674948,-0.0076261127151998195,0.053661319054106725,0.1091503794918372,-0.027431267016984652,-0.01673771355579952,0.009120818975282965,-0.0596545290536979,0
71,-0.007400969040830625,-0.010056657263814755,-0.07457049541177233,-0.05335259890980558,0.07981817555770686,-0.0028167925890750832,0.019595440541390563,0.04147709288828008,0
72,-0.001956436103503317,-0.022424009547937652,0.003116745357158055,-0.004441925822455615,-0.05383351084788487,-0.01446684599933088,0.017172052764479077,0.06081528048654406,0
73,-0.015444897281136063,0.07042666181742908,-0.002942832723717482,0.010054965698454361,0.0268793583168259,-0.039866262784516555,-0.033697258207739604,-0.03543710200201186,0
74,0.012986977979017478,-0.054269731173149344,-0.02536646240456252,0.008528042069145828,0.01645842449255371,-0.04836846913375836,-0.005716162956762588,0.035765790731513585,0
75,-0.057956159633302536,0.04410436539958925,-0.012485459363262723,-0.0730969152596788,0.03699634456991764,-0.05123316937147104,-0.03421946382752177,0.07433015044476005,0
76,-0.0361927397193543,-0.03071362001990868,0.07698906684323815,-0.035469916365363646,0.05457615962689953,-0.018629523134582278,0.08739711106536797,-0.07016951649444832,0
77,0.00915354053299124,0.01606706071029683,-0.00053746929367516,0.03542197669484865,-0.005891477615902264,-0.018631137472120394,-0.05281383572922155,-0.0458676709392321,0
78,0.049516485074551295,-0.019143534440042388,0.01647761288538095,0.00894610462584553,-0.033065426810258855,-0.03656841940415703,0.037186808488226544,-0.0013267322343616123,0
79,0.051027588307331256,-0.11744054660304061,0.04223233969522468,0.03477869901354673,0.01217836340945879,-0.02322913986617429,0.03583823927909839,-0.0040808142368453405,0
80,-0.10682090897412284,-0.004820935862060852,-0.10201990656389401,0.04458276917137658,-0.022476385443631838,0.014528157373974325,0.0284705061751432,-0.030786617303497223,0
81,-0.02070557842223167,0.04511167217097879,-0.1002258286492753,0.0929357998171382,-0.011408881339921413,0.057724892950955835,0.014471840951899888,-0.1156199156201378,0
82,0.05476844662486136,-0.005457761559866466,-0.03171093782264117,0.04695557110744993,-0.03142824776014334,0.044465571314177596,-0.018804100291981356,0.07174533244764271,0
83,0.03420609956768446,0.02403624902670155,-0.05233168437931895,0.05403553292348973,0.07287599940893535,0.04094666764267475,0.04344353603071179,-0.0355873370713281,0
84,-0.00712769685927879,-0.07169620506985643,0.06338807829297591,-0.029562212791285132,0.049608163316527266,-0.013291051027559472,-0.008244517526511192,-0.07197897038807086,0
85,-0.024063139467611704,-0.031120315966238453,-0.003402146573714665,0.051430406972738284,0.010915859888165333,-0.041114728550431946,0.09594825763106826,-0.05507091240264727,0
86,-0.04545005468279873,0.01663031693924793,0.02030032621713103,-0.06898188997638487,-0.00523880284519747,0.046319911071845445,0.043672003286582925,-0.004729943358006477,0
87,0.027090572515387774,0.042520346713520916,-0.016358415767002397,0.006857163914963811,-0.023532268669627196,0.05233342316326756,-0.006098506761512128,0.0606882222973222,0
88,0.007540253225468286,0.01728767216673575,-0.08008054758333985,0.012629350512029177,-0.10759701301214533,0.00432361019484869,-0.10463189668734243,-0.06739887595769146,0
89,-6.286850290194027e-05,-0.010338821039628705,-0.019659717031127934,0.049861220141497534,-0.014080031306159537,0.0005548581513597026,0.13315160533985249,-0.014823684956955728,0
90,0.02986836977037652,-0.05517579819328312,-0.029787616633442617,0.0057384344360350385,0.019179901138106956,-0.029314539615921523,0.03921388741991028,0.07323944665602458,0
91,0.033767965048904204,0.05947193856023095,-0.06813981508295923,0.05916142605549174,-0.020097434767383335,0.008654497744190155,-0.05257665798403183,-0.013908625022727435,0
92,0.08493159440368359,-0.026065155830123015,-0.03826035097352561,0.012375435393583581,0.0967388487876304,-0.007214875035058846,-0.05857148556316121,0.016300464775119015,0
93,-0.09967633841075683,0.015414535323124553,0.01381291993351054,-0.04647329649961881,-0.008849770969696526,0.07448475143019269,0.022762428940328098,0.008289667569937103,0
94,-0.04312568164184911,0.03872634699672636,0.023313704832950446,-0.03353114255140224,-0.005141871317054701,-0.03885514237311965,-0.006008781723215078,0.07349996656688018,0
95,-0.034928092082508556,-0.00263684025613207,-0.04101314947954732,0.1135787023513754,-0.06738501701948256,-0.013746569925428612,-0.03662054317420376,0.04076735694069797,0
96,0.0008328979092840749,-0.017299606676555442,-0.004392886030609291,0.003117361522867707,-0.019509265532276415,-0.004096379381596279,-0.06305950594964638,-0.06553786744313606,0
97,0.009213991338460391,-0.03371577422264777,0.030557379825994813,-0.011762390034786385,-0.06398264971476415,-0.022920823101485636,-0.14622668505862163,0.015404710026679775,0
98,0.10784318792710453,0.04222545237272547,-0.03404293255913347,-0.04831649041703332,0.013801094871579813,0.1073076777585454,0.005341559933837995,-0.04427270787480983,0
99,-0.05993228198256348,0.03794780767145372,0.06787619770129967,0.025408397935368865,0.02161858828276752,-0.12183207010388224,0.08700327884313458,0.043122823591084714,0
100,0.04587134784316984,0.013341546404197357,-0.03478234028662582,0.0011197772184856486,0.008958202276311101,-0.07657763038523731,-0.02207732968150821,-0.02692409642628254,0
101,0.023748106195846382,-0.10645626091247189,0.029347926357498343,-0.003019393221408326,-0.08246458311703335,-0.015065947200141146,-0.015966066878485518,-0.12994685968476813,0
102,0.0614379840700398,-0.0019600117447119507,-0.03953788591018887,-0.0756464419269091,0.03884829117858903,-0.12932996057570034,-0.10182390640067185,-0.08064654525002941,0
103,-0.011366415539854418,-0.02443388904276963,0.059095916739442124,0.004799095127765381,-0.07456824279767027,0.012726711542540972,0.030736604259637736,-0.04265939625760754,0
104,0.022382368875949733,-0.02314101801210738,0.011060428467097434,-0.031276118729425845,-0.032076873725636355,-0.04058183012432823,-0.07686876458998079,-0.032588427473106654,0
105,-0.00448445467776154,-0.03528549782566297,0.010357530525563947,-0.0216897209562386,-0.05273408898949288,0.02547366097109095,-0.09305571620950115,-0.007103099478450373,0
106,-0.014501014496531262,0.047451346000036296,0.001231687494012686,0.03334413286047485,0.01907194681416151,0.004271182109095451,0.045714666233620235,-0.017077357744633412,0
107,0.08128443681214438,-0.0831934460643892,-0.027071100434343506,-0.010652445543435215,0.0031416361236406664,-0.023482804588585662,-0.03406764363761965,-0.09541346805543269,0
108,-0.040629747205171145,-0.03907748679099348,-0.09609196062843983,-0.044826964993656286,0.041265272272074396,0.011880434144068858,-0.01308085137637907,0.005779737888180039,0
109,0.040454811904874856,-0.027114315165173663,-0.040003784060089566,0.003838943769927855,0.014283500324278007,-0.05298495911975758,0.028167686988183057,-0.03307763281608917,0
110,-0.003939020157976591,0.06112739550725651,0.05715940211484312,-0.014343057828415792,-0.04785725657809059,-0.044247268961085086,-0.0251201327491951,0.058033151148851915,0
111,0.035335392097989415,-0.03678067037428114,-0.034608593891916645,0.008293168039798219,-0.02967898768183392,-0.02125595759523534,-0.08382775853586442,-0.02343761263380602,0
112,-0.06221087869758287,-0.033725076950699644,-0.018813456707564305,-0.06978859478009365,-0.05041377661185551,-0.09745518447609931,-0.012468589364144637,0.015379614113325779,0
113,0.036636889357931864,-0.007199879296914498,0.002437119096964181,0.008371015252496743,0.06496499241055075,0.07318859608864939,-0.03771670113084337,-0.03111226597626686,0
114,-0.03211841325254951,0.03451561569948391,0.006313187711628862,0.03939278661959637,0.09917989488517166,-0.0168680930867189,-0.07103619328544748,-0.06495822928068509,0
115,-0.019324583087801106,0.03714637626590365,0.030878788207954238,0.04292179389383444,0.011743029070037608,0.0028664704009612116,-0.05799329445397718,0.047969482236819745,0
116,-0.0334456177119539,0.026361950000549174,-0.03417692683387071,-0.05061631861273796,-0.009212686485532131,-0.088050191846688,-0.02574103483443557,0.12296022310842147,0
117,-0.062475736120983554,0.04767894183435297,0.027574337045205406,0.0034751712523119825,-0.07991664773932664,0.10008044801570698,-0.029531582436726978,0.039291091225621834,0
118,0.015873575004318127,0.016233897796694638,-0.0024739437304798174,-0.04094454374605651,-0.053448855430940724,0.001692361556410719,0.035238316623811314,0.024331358224103903,0
119,0.008055887190752006,0.04250019508375483,-0.02616447278370381,0.1016143271991776,-0.005432589044929755,-0.014507443871437575,0.06942583062152348,0.01152336949907925,0
120,-0.000693822687642539,0.08029575709260282,0.0024586822949913202,0.005275344345748898,0.049547050740262964,0.0769426974617766,-0.020295149606533808,-0.039798562156949394,0
121,0.0038548297091136057,-0.019388924826719445,-0.014302458401976356,0.04748225586420721,-0.0465375976950382,-0.005292614569704004,0.033607814211702475,-0.07785942734704836,0
122,-0.0043386856939133175,-0.006777836220735356,-0.021484107042329822,-0.014068587338427089,0.06436200893715394,0.01870781084305969,-0.017234954155299125,-0.03251521092028741,0
123,0.0669400697222606,0.14008533793492484,0.07380665705109117,0.05203815852334532,0.01868247355775216,-0.028254798188868738,0.025319686308170723,0.04611811702217144,0
124,0.08920125127845487,0.10074977749208396,0.04116748950241622,0.12842315208775712,0.105792562957488,0.15211246683481827,0.10505029714731266,0.16418223740195526,0
125,0.22961512942960663,0.2677953770831279,0.2474592165330598,0.1797925465454842,0.16986160726253702,0.28800598504342134,0.24236662778078277,0.2984651721540086,0
126,0.3821927104242481,0.43958825995438067,0.41786680046328073,0.3834073556447134,0.5026074538929463,0.44712774099910796,0.40401458881880126,0.4283592882167159,0
127,0.7340255267709835,0.7335893984800664,0.8293969728892956,0.7226984222378123,0.7681102220897131,0.6626740360474286,0.6926735626614772,0.7620838250673483,0
128,1.0652364116652255,1.1307519713150225,1.2234290441504587,1.1740901484871102,1.0952126061105663,1.1183484348012005,1.2327848157388497,1.194823240917363,0
129,1.6835985861312481,1.710765891177041,1.7497888871327607,1.6881822550910865,1.6596227015753875,1.7372000453707477,1.6385942920205676,1.6730440909280648,0
130,2.3386534851318777,2.397187220091432,2.4267486940055476,2.3820888074175217,2.3904856659368297,2.382847600825474,2.3354858615927974,2.323511497276289,0
131,3.136055195714042,3.2497831228148297,3.1547391993431155,3.098961250056615,3.1582959499078314,3.192013004722257,3.2202128123826212,3.221161348891509,0
132,4.0813680898165385,4.051300794060529,3.9920492920617083,3.972866514765887,4.032445647154847,4.087791199564291,3.948683401743842,4.043344246865123,0
133,4.8806141159128815,4.934264459028327,4.83938213810094,4.815820761448415,4.814327273707318,4.89405523396555,4.7831975177740365,4.826438037606409,0
134,5.684659613388747,5.704881157949125,5.6234148216515925,5.733793522791826,5.713431685467308,5.601407647601843,5.582065997090414,5.700773090070267,0
135,6.331682352895669,6.356534713701217,6.416623929287753,6.392112870832225,6.36821934244392,6.404426240599933,6.421873370186462,6.373147605721688,0
136,6.799788349758294,6.83955101671583,6.812115566164032,6.7534489841141205,6.878545188717576,6.815044195163744,6.786818351647978,6.8193879927890135,0
137,7.02650865959086,6.950361999410523,6.966187473801907,7.05980857640709,7.013389494369459,6.970502015634669,7.0286238736453805,6.963276613096625,0
138,6.736536288963739,6.735964325696938,6.801569947279338,6.670288617915829,6.768335266990314,6.731219049235414,6.72842671217356,6.752706761773024,0
139,6.111442855525338,6.094458889894273,6.189866367584215,6.079306260667191,6.136023272415136,6.122803237245468,6.070500201940568,6.118356921369523,0
140,5.137347866014274,5.101836230331928,5.162444251672851,5.231524627100215,5.234558568042916,5.281491525399825,5.239972144166482,5.227703211291757,0
141,3.949711143961435,3.914644372131598,3.9868232092243505,3.901369388850684,3.8908788445118856,3.8717721888329106,3.9164147348600022,3.8789083786748715,0
142,2.5636702628609527,2.599076068443855,2.572471498273316,2.5709839614998695,2.582118142180101,2.5388808333661057,2.549327297411598,2.523873982128362,0
143,1.0410156242941782,1.0484340712294096,1.1153844732731657,1.1270345391321,1.0874363779292051,0.9650100540693821,1.1393679254463334,1.1131939968583646,0
144,-0.3792434079069962,-0.27628305389325836,-0.35453419678610465,-0.3838840267400039,-0.32218310806796935,-0.39558637749184666,-0.4092537111572393,-0.44289202541883327,0
145,-1.6074442648627865,-1.5096751864387694,-1.6073522796066648,-1.519391611075895,-1.5554751405529947,-1.7047575787109892,-1.6101535546433885,-1.6155572652989978,0
146,-2.460987856843546,-2.471880958941132,-2.436580346056902,-2.4531127560713504,-2.452035800668124,-2.5876124577344606,-2.56396621698847,-2.4729205043015114,0
147,-2.9823151278687607,-2.950174797240207,-2.9380500645237935,-3.009557734081431,-2.928132332102039,-2.8424826817543205,-3.04011174645185,-2.8850300632211323,0
148,-3.0305504040192925,-2.984665310435838,-2.983049027218478,-2.911648231034997,-2.9747535287168088,-2.993695382292129,-3.0154840631866846,-2.971023636894439,0
149,-2.624643242991587,-2.5749833827809847,-2.6290338924973935,-2.6799763971333808,-2.573474521733066,-2.612607368313499,-2.6910940283399287,-2.7057618121599036,0
150,-2.1151128056558313,-2.009513947308614,-2.09945720089286,-2.1463765040180673,-2.043480007479576,-2.1009415119831836,-2.0628423305665335,-2.050610396778916,0
151,-1.3322624587446474,-1.283974332935796,-1.2660010365942977,-1.239794510287257,-1.331306605778235,-1.3973807024840519,-1.2674741818426727,-1.2587751983472717,0
152,-0.4110564288167466,-0.34581597132242303,-0.40354735887823756,-0.39418741318901707,-0.4564224365189008,-0.40794489459405076,-0.4522126353301613,-0.43875070691726353,0
153,0.4870066763300452,0.47396636759196537,0.5067850360179085,0.47223250539697814,0.47525970074830065,0.36255434815847454,0.41797657075287953,0.49773148802573663,0
154,1.062254609435031,1.0955058757706284,1.0980674909505608,1.0124739104343943,1.1506013104053707,1.0733614609175932,1.0751699136046986,1.1507426480068152,0
155,1.4495988405586422,1.4313502774164502,1.5354387907275193,1.490819021722646,1.4426997858230874,1.3889910355456256,1.4338143170214799,1.549863130743191,0
156,1.4962909465300869,1.5304980887057371,1.5890156756874216,1.5661178907513613,1.5767125872439975,1.6474716701909085,1.5807841418427837,1.549866974049496,0
157,1.4885180996234157,1.507365336241156,1.4689358278257114,1.3556563446931067,1.5088279048671294,1.349346624696161,1.4355298633834441,1.435667304601193,0
158,1.1213606875358173,1.205408486409452,1.1284971969650972,1.143108316462677,1.0861012136749155,1.0920439591241844,1.0750659980637287,1.1335748937713603,0
159,0.7248864566107553,0.6640390524862454,0.7117874709183396,0.7153050990255249,0.6819046738639237,0.801318353176151,0.730038304214025,0.706195598909517,0
160,0.20159159012261593,0.3272223068956924,0.3210749319840639,0.29192257794629534,0.27714581380702086,0.22275737542421253,0.21396403384693186,0.16043421147692305,0
161,-0.18702941693609332,-0.17986563166005481,-0.25865468073691644,-0.1901204198421806,-0.17492618548010413,-0.1962641650803807,-0.18864112143338052,-0.20866054721085714,0
162,-0.6230389603329033,-0.5705330930981944,-0.537923352848369,-0.5360743924584298,-0.48540717260912963,-0.5984845477354716,-0.5518699240937297,-0.5636478959854153,0
163,-0.7408844062436265,-0.7587479721017146,-0.7633248744759391,-0.8498866924454171,-0.7894032293467005,-0.756311588884886,-0.7693400080546409,-0.8166038326167854,0
164,-0.8469572797908159,-0.7603803680013093,-0.809348530470175,-0.846315067326457,-0.7554906588061447,-0.8066887474243153,-0.7721627522737711,-0.7928499431268672,0
165,-0.6444890264281339,-0.6833183906094992,-0.68336749520984,-0.6546363544197807,-0.7151103780335624,-0.6757427998954476,-0.5745647361066554,-0.6891881106964846,0
166,-0.5763226350303909,-0.4996360571666561,-0.4854880490056693,-0.47477892884904654,-0.547476882376035,-0.44481949854676384,-0.5733781453292628,-0.4879062846442558,0
167,-0.30865342033275184,-0.22720645974094555,-0.22391178573610993,-0.26625394301067123,-0.24020127180791243,-0.18108613589729836,-0.21313165156510722,-0.23633350974316117,0
168,0.005780333150680189,-0.049153394843728715,-0.09016195104441202,-0.07743932112473281,-0.09149197602204893,-0.02110607854578679,-0.10191395089967448,-0.07654251109810188,0
169,0.23315598180598848,0.15291745412372068,0.0736333707920073,0.18397499116777602,0.12598740562974117,0.24427512262008763,0.10310564407011534,0.07159163496787158,0
170,0.3354528771891255,0.31659097181492146,0.23614348242201466,0.19471320090781094,0.37496804563458724,0.2526774138308713,0.2872536786521771,0.18424404217259677,0
171,0.39581621395984884,0.2755596118745454,0.3505818267524988,0.3392818098018316,0.39865003785635855,0.2468199851949201,0.2938803831020444,0.30810156939993066,0
172,0.2465092180979472,0.35723008648583904,0.30264032658358403,0.3290133822696746,0.22939798348121354,0.3745502944941172,0.2635722784285951,0.36781036013005786,0
173,0.22752918026007934,0.23881866746176755,0.3394508712528975,0.2616734905794519,0.3427417122694809,0.2046539618978172,0.20829428011814968,0.3890323403451557,0
174,0.13920249945182606,0.15591853668349315,0.13366311800156566,0.11102733541719759,0.2160757721917302,0.12862150572446715,0.1828866806128395,0.08893459384047359,0
175,0.14808408616505458,0.08155800831505693,0.13309734148835148,0.023652942899191932,0.055613133293991944,0.010156598992273405,0.07998457170750135,0.10433694875913124,0
176,-0.09613266370018046,-0.008932714411780503,-0.09831467557871787,0.024115956624509622,-0.02141196905820462,0.03325670538202584,-0.08439559693033642,-0.06314470592036286,0
177,-0.07546323750844693,-0.08710691966863725,-0.1396831372277431,0.002401682621637452,-0.0818930163303553,-0.07623966864294347,-0.13490880759070675,-0.19631499448487139,0
178,-0.08584879307492702,-0.06371270854886131,-0.07079179786966461,-0.19750868494776336,-0.173663769509725,0.05400899848107693,-0.10041940866732127,-0.09018799262642384,0
179,0.009592605090589179,-0.18233024491131566,0.04157361849871771,-0.13786004068874347,-0.09594814898890545,-0.11436327053772981,-0.0832424471248984,-0.14428883489723524,0
180,-0.0629472581887227,-0.133844814371496,-0.10320452547028724,-0.10504446965248287,-0.07876713259023968,-0.1810692587915148,-0.15315295706874393,-0.030872781925337392,0
181,-0.08925768236652676,-0.05932852941382391,-0.043256784664777434,-0.09237792104131218,-0.03418784784267113,-0.10023230331249519,-0.07037963495276393,-0.057518606594868876,0
182,-0.02664604242271363,-0.06797469398017705,-0.0053299546610410704,-0.018009453337597413,-0.028954892574400044,-0.033252170773977345,-0.14147202212416438,-0.02607770619660202,0
183,0.0950771908388395,-0.05134709140038802,0.044276961598541754,-0.014607430853964916,-0.013280286686801673,-0.0264603446922394,0.013448713108155475,-0.02171170130224454,0
184,0.015952275123538924,0.06165471082763509,0.050044271193099496,0.11919275063963906,-5.922049877565838e-08,0.007902574219979381,-0.005820646407213428,0.03410005324346447,0
185,0.19588499327542394,0.02224335901011715,0.042301264342180685,0.10061698509182629,0.07702790403411462,0.015360246700802018,0.02045950938981092,-0.003765948441059652,0
186,0.06190577503504174,-0.07813248885398054,0.022830974904199497,-0.037354744349294686,0.046945354212932576,-0.058028153155593135,0.056333143629358234,0.007528466095476898,0
187,0.12672256648616298,0.05588152927630316,-0.008417824563521355,-0.07107180261574164,0.015711997321952526,-0.026165439473066692,0.1015154891340331,0.06563702955842544,0
188,-0.03351913720004853,-0.02508437595729293,0.08438346333536523,0.05322180111839028,-0.014356246419883825,0.1245049613025303,0.02256459433774213,-0.003518477075511197,0
189,-0.026399800207473657,0.02157575449622468,0.16256072751476086,0.03491644734514961,-0.0212549801548437,0.007789046523672195,0.14816752925237875,-0.0018842567973784002,0
190,-0.026767117762261677,-0.08728110042554364,-0.10119913110271644,0.04134997170035075,-0.10249799673332655,-0.0037743471014949686,-0.059929015745352816,0.019808116823807898,0
191,0.0368432372635851,0.04131942823595481,-0.0159422937150097,0.0035854875294181734,0.031054909118253083,0.01529556655394072,-0.02342824132372438,-0.028156122322433603,0
192,0.012313066101234291,0.04451199197357696,0.0811031503625229,0.009583616565926803,0.030310633974107597,0.03433717228968738,-0.0018269805711258703,0.07663643603816683,0
193,-0.05219462418526886,-0.02181517767754424,-0.003445102007581873,-0.006758440019741726,0.028588744199815646,-0.032405890329322506,0.0776624695569304,-0.037821731790179426,0
194,-0.045593516227346274,-0.09076621343994247,-0.03328286569548511,-0.08571070428297536,0.02139058227376201,-0.0980133612008287,-0.0327243696106949,0.010654588264569078,0
195,0.0012613501679405456,0.04464684316924438,-0.007046314640348629,0.04029139058628759,0.05404612484087941,0.10384761228951367,-0.05177496447288802,-0.012917185000152771,0
196,-0.012814037949235342,0.009847623559088806,0.024508636885517868,-0.030106650182645397,-0.024677158426629174,-0.07698376798249348,0.013073991645531951,-0.062105899267603626,0
197,0.002352371836290365,-0.0024866960406970534,-0.06929285341976298,0.021834637524036204,-0.024379568533654306,-0.01560368860287863,0.023916711677963377,-0.02775005752740915,0
198,-0.012364071927611145,-0.11637441902286397,0.047612164098858094,-0.007663245955060407,-0.0041966216613952625,-0.013306720290024627,0.04706972237419232,-0.00035718450781871023,0
199,-0.04183291274217479,-0.05414744968790952,-0.0062836758637667125,-0.05236033324303715,0.014041213164062613,0.12171743666081081,0.018098345392912232,0.0009926378942558627,0
200,0.054860322100570215,-0.055351446345953646,0.030731518804416637,0.06237217337945542,0.03550266296274889,0.001172455190934078,-0.011676980763656569,-0.003782919708017008,0
201,-0.06614074551054851,-0.012117632560976746,-0.002949844553252758,0.006675625472155569,-0.15273355136351352,-0.07509176782367497,-0.007680925289883394,0.05880481961971159,0
202,-0.0699140066435319,0.00929857154833075,-0.06304792707353545,0.003205527871691374,0.07574994110909354,-0.0632714148209608,0.03895397759328039,0.006407474133368166,0
203,-0.019501196025064706,-0.17986382824712624,0.08662153911316847,-0.0061577432347330084,-0.06626311334550601,0.06531562630286795,-0.0743548659454574,-0.03384937603196108,0
204,0.01133658453109893,-0.035488177717395236,0.05074791821653435,0.055967002738714154,-0.011422131162884708,0.05780483336037375,-0.02230823725764707,-0.007611713483904302,0
205,0.0303299836144565,0.03125813878503273,-0.018921647615069998,-0.0218813345716906,0.00983348221563177,0.03326783539045206,0.04638099901722282,0.05994161583939817,0
206,-0.019773785717403423,-0.06204524494051517,-0.0002357908023885551,0.04227548253390366,0.01687505564191745,-0.07036209816279623,-0.01048622210776939,-0.01549164247218604,0
207,-0.03510658843042754,-0.06599786251853404,0.016592186419467827,-0.03830238530342553,-0.03212799875121149,0.009416735265420107,0.0017863759224747157,0.029540125694893733,0
208,0.007652297464285133,-0.002461913805004438,0.01471911377040449,0.002009446429124644,0.04078953939408303,0.017694190562356722,0.04939343690080115,-0.0611609952373154,0
209,0.04786673742513656,0.008501837898778751,0.008476424991177811,0.10174728381247908,-0.000770929213954349,-0.08207060627116322,-0.08961800372294579,-0.00338241613477017,0
210,0.02417199613799234,-0.05993384112511747,0.049861480371799514,0.027486740522256106,0.033821248401274304,0.03635933755029723,-0.05429322690992104,0.024307968081694026,0
211,0.07348548344533241,0.09469890265854669,-0.06655078151849202,0.03593076786276602,-0.007558651437244551,-0.04891901023383461,-0.024943755807471758,-0.009902798528011953,0
212,0.11414011973507607,-0.05151597273110291,0.058326289541638245,-0.0072379522559541005,-0.025087132506618225,0.004144624916278052,0.016867994436767387,0.013655015088389965,0
213,-0.0036099803123165047,-0.002708497601149138,-0.07010568611304606,0.021518880860236057,0.015255597888776853,-0.05051900107990184,-0.07819932201395413,0.030665849050614973,0
214,0.015991815183667858,-0.027368200450995393,0.10700390700389319,0.15428558384540608,0.016835721766147907,-0.004897507313504408,0.07323664708325042,0.05386750080847635,0
215,0.04258466545186346,-0.01499147174876817,0.03817456243469361,-0.08170534134979338,-0.0761025529267925,-0.0022446274892018968,-0.011246303986006626,0.03627361446829013,0
216,-0.03813064159330825,-0.0385020326115156,-0.08777775349306659,-0.04676761446019475,0.014964449370986926,-0.056735702515085834,0.04259352379518855,0.044433467190342434,0
217,0.08018552078409354,-0.0794743173313823,-0.021055031053853018,0.038650938527006275,0.05495841606645759,0.08231764193056583,0.1138128316808935,-0.04340034770694095,0
218,-0.041021776799533165,0.04391580613685537,0.06288402617516038,-0.05070268028978086,-0.00396645129938153,-0.016090422250084845,-0.06684371587351406,0.050117943515077375,0
219,0.07514047137468291,0.01010771738406392,0.03860865610467464,-0.07275616506970892,0.02974402280881609,-0.022694697100117765,-0.022498209897990326,-0.026638306358579125,0
220,-0.030217528741341673,0.05682969307212745,-0.030678701497930883,-0.00466272968129924,-0.0578558408058277,-0.0216496336282446,0.005565169052606875,0.05136721334475416,0
221,-0.03221631572736636,0.11344054703114587,0.07216589899176722,0.06212555755072396,0.03433368986245173,0.06221888273162043,0.05205003891574418,-0.04711434508288111,0
222,-0.015216709183620447,0.017601494219722853,-0.06026432182937916,0.017679925970954642,0.03423549597825652,0.04084041690778621,0.0028762303961782304,0.01255304690627712,0
223,-0.08216462051997568,0.007971006078871187,-0.03480793373512311,0.0777210348806751,-0.04860347370189644,0.0038152452005504062,-0.044529281240620756,0.001975413717636081,0
224,-0.0456074444216923,0.039109392322227834,0.020138238458725293,0.003127792882410901,-0.0761453225547642,0.003109186993220939,0.022264865435126943,-0.07381396664584293,0
225,0.08051275859644295,0.028059022920734252,0.028384187678714163,-0.06442140284732012,-0.04647204580421627,-0.042766448432740495,-0.11000066178835567,-0.004891503704896516,0
226,0.0662016563491096,-0.0778117166732575,0.03801907622146638,-0.01837914628026971,-0.004346998173931309,-0.05083278462901785,-0.03805022157040038,0.01977677303817128,0
227,-0.05091274606618685,-0.006263587398754791,0.009204808151585513,-0.07069695475814167,-0.07706319755392993,-0.014811686205454882,-0.06720545398646599,-0.05937717807965146,0
228,-0.10944777985913902,-0.020161703514940166,0.046702769734497156,-0.048719198661785985,-0.0030708470041256697,0.06529206074402506,0.03688906047077951,-0.003974629179208863,0
229,0.04339840189395261,0.043499146035630855,0.02531905985489071,0.014785867626067751,-0.025610113537486788,0.03957560584824945,0.04334671479698167,-0.010270531831625672,0
230,-0.02164876029741093,0.00047296527557143036,0.10783925383176982,0.007651798597500896,0.012120855275228841,-0.08862173710921882,-0.016636955184848576,0.04769502497400289,0
231,-0.007296401170161964,-0.014376097855739072,-0.0014476581262889822,0.05371863303592603,0.07923613140605373,-0.015800289345695426,0.05490751219175575,-0.10166222744495487,0
232,-0.09852778882511941,0.08184746139207288,-0.05493404003864782,0.08126361048371007,0.027853436554698362,0.008702447116663466,-0.017640266833311026,0.006426466280821883,0
233,-0.0007433296892551141,0.014157995822536858,0.05215672070362265,-0.0006586025889965813,-0.01481741970035943,-0.03219022641671246,-0.061056990741663104,-0.04046171207110897,0
234,0.05547292820868141,0.0006228910440875381,-0.12363992340304453,0.05801507276498636,-0.038613088075845604,-0.05221993092354527,-0.021251023102074083,-0.06476617553056141,0
235,-0.022007097913739906,0.03493990767141179,-0.04888460932910103,0.01063324758244896,0.04118702810173336,-0.009310814882736215,0.0035199961797707,-0.10707745330969295,0
236,-0.04970100085021314,0.046565909749639776,0.0235225335405955,0.07277748711393894,-0.01841941172376833,-0.05741150886569126,-0.00745511066094757,-0.045720558155759504,0
237,0.024312957891198625,-0.00762345674121673,0.03689363443625959,-0.028621263905044533,-0.007534081401069741,-0.041953721957814716,-0.037459533487131116,-0.058480886729495196,0
238,-0.012544813876773416,-0.042691968572144565,-0.08883407673386959,0.025771302080404453,-0.002507685079198159,-0.05052784051076802,0.03630901811128435,0.009279946229607268,0
239,-0.026459454539200896,0.0018720986107116202,-0.0375175991876506,0.005078218709817071,0.041577484828640675,-0.06322324861277726,-0.0754831072577197,-0.012899617400506415,0
240,-0.07927140085950952,0.022716704942031297,0.06430317880919789,0.018488782805090337,-0.013541945007900782,-0.04486810017212532,0.0067146469917382795,0.09166289386239393,0
241,-0.01104427114573842,0.057661333364396834,-0.04002602590531225,0.06223035293667677,0.07115812073124325,0.00022772143301171466,-0.04413715360523508,0.07625109051416741,0
242,-0.04705334962810481,0.01049051305634442,0.03110821286942672,0.09634768007197793,-0.02566382311140082,-0.048274977878992,-0.07188508718180621,-0.03180327863697177,0
243,-0.12588134295637773,-0.04760928536683639,0.016216023708328975,-0.01794236915242115,0.06640232525211111,-0.018513225408754976,-0.002307917284503973,0.027028120963033996,0
244,0.03282478836376186,0.08103343544756775,0.005649316134958105,-0.028622803866235,0.026713305252239382,0.024613537087184334,-0.036310984347097376,0.029198259578923594,0
245,0.01710199510482347,-0.0012070632279495251,0.0023191753271264858,0.07486667182892227,0.012022910391306603,-0.061671779803208794,0.07721219624185102,0.03396859261352404,0
246,-0.042166299345905864,-0.02234179397908984,0.033095950253875725,0.019868534881644164,-0.01597791031474012,-0.05033694066318438,0.008721620679622961,-0.02373392617156872,0
247,-0.0017757752272375138,-0.015471531868299835,-0.0070689202412409224,0.0054933824154465,-0.07265512174408627,0.10368106915076503,0.02274837489458145,0.03833134363959739,0
248,0.10842646405241735,0.11784725532829293,0.07352797608036582,-0.07395032646454283,0.015367480579464025,-0.04671473532673675,-0.0346364702663964,-0.002359930659116341,0
249,0.1128105049755067,0.12474037675991828,0.0713975018190125,0.1004533673978292,0.016806235812793502,0.03748677813937942,0.10541360732705075,0.10398683847883049,0
250,0.2957916794136288,0.2750558025095462,0.20006854210866087,0.19373119275892053,0.32522926378452877,0.27611450606317256,0.21848813723242025,0.2935941361970422,0
251,0.39220798709353355,0.44911901339010596,0.4653360212969184,0.49481149292130294,0.4144207070414644,0.4081675965179268,0.3916156285732762,0.40335541502658984,0
252,0.7144499802536831,0.6761663123192319,0.6789854017026605,0.7606501824436436,0.8048094133312678,0.692602090389919,0.6699463075920333,0.7694716435597289,0
253,1.0867983792993232,1.0339172613580416,1.0249181015865645,1.0482945070506362,1.1219061864339286,1.04763010477123,1.1348283047172751,1.1714455993575754,0
254,1.6644360315837998,1.6399346165397668,1.657770841655124,1.6516056835892208,1.518103879539909,1.6818524688391094,1.4880114041297012,1.6818695956770915,0
255,2.2440055850786087,2.2241293667346183,2.3437972754041567,2.2793953277446417,2.289117567109267,2.308565674318257,2.283780664912717,2.277494804386284,0
256,3.0766505193564337,3.1522516597795303,3.078679848615639,3.0498293047883536,2.9972622920019214,3.1567398338298003,3.063952640193352,3.01911323790396,0
257,3.9330145351815906,3.91333948755768,3.862770820207326,3.971125471421501,3.9385046050168895,3.994108376439274,3.9011952869260806,3.8712765595251497,0
258,4.775286603604372,4.707660168999298,4.818925171561729,4.805494787993338,4.693693447503608,4.793671707034807,4.743241976635496,4.752716897431125,0
259,5.628313592673481,5.681461952619465,5.643427479187284,5.6702745178105545,5.604406355765455,5.62921675047534,5.644629898848326,5.569568237695222,0
260,6.298961494438074,6.265709032411311,6.217772622117151,6.269854491990918,6.26852680808995,6.247967134886014,6.338671156105401,6.349922300367377,0
261,6.868096408242573,6.686362845327412,6.688802953672701,6.758315030470812,6.795132475937739,6.729034788109423,6.782044414813317,6.72978863938812,0
262,6.936659345129304,6.961116685926736,7.006955349526595,6.959081775265801,6.998492978165155,6.935103004993919,6.959121505484538,6.9536658111571334,0
263,6.807048483701531,6.925104925626747,6.798820676500393,6.793029044985679,6.780463347640898,6.848837916724142,6.879502769126836,6.814430797748032,0
264,6.206518840269472,6.352378913913981,6.280592774511754,6.202014723555998,6.229452858853973,6.189638435016963,6.28778354259443,6.140211072602248,0
265,5.324307309702165,5.266140635713134,5.2995705321429085,5.295284296537565,5.360472894765413,5.279562969110327,5.3094461228376755,5.2451539284137105,0
266,4.128112700771228,4.120232103860205,4.120894398058117,4.167624946668604,4.113329945485442,4.105932442394319,4.189511982224061,4.184310679660422,0
267,2.771856427551102,2.7189388693458247,2.7320360275833524,2.7203653701538824,2.709205218619812,2.6742039855953483,2.7333248204338387,2.7264620852589316,0
268,1.34067584662504,1.2214171660915036,1.2836168055956978,1.2071462298041857,1.2426468687945116,1.309845456204888,1.2077667027266672,1.2323588750228818,0
269,-0.14165669857587943,-0.27564782282570177,-0.14585982292987978,-0.10822797042895502,-0.2291053437569554,-0.1919723498715385,-0.17284164554836323,-0.17336663189386714,0
270,-1.563985810059391,-1.436237119307991,-1.4625089318020685,-1.4506558759169192,-1.4589259804703736,-1.4524998119302102,-1.4353934700117408,-1.3206313783248023,0
271,-2.4383442426023927,-2.420955508575353,-2.3723573297958342,-2.4696775330551235,-2.3796808532613127,-2.403272133553311,-2.4457540941294194,-2.406379698030746,0
272,-2.983548820687494,-2.8294763785467567,-3.0182789792064497,-2.95775475028334,-2.932666782618959,-2.9549267750623507,-3.0533950650490396,-2.8676223709002833,0
273,-3.021097733271847,-2.9974109089774674,-3.0782589000723277,-2.9681356420376757,-3.0281223263217374,-2.955662511574244,-2.913488546467958,-2.994598359468008,0
274,-2.6201786602254136,-2.673373423299312,-2.626870656218508,-2.7727964381583643,-2.6715963997331627,-2.675381340438459,-2.8018816843987806,-2.671585474499667,0
275,-2.094615468310818,-2.1990922781042097,-2.099802908398932,-2.2034383988461603,-2.1450482546013196,-2.159239417795597,-2.1547175355438646,-2.142187072920044,0
276,-1.4083840402508687,-1.320903211290346,-1.4071103886275362,-1.443124975557694,-1.3591138737062731,-1.3754478994092867,-1.4463550562981857,-1.3445694012369427,0
277,-0.4855353821633793,-0.5171587968193713,-0.4989288051154973,-0.5120170270433704,-0.5589906683287045,-0.5150382743427875,-0.4584888064094868,-0.5254742923856676,0
278,0.4364429234927263,0.42918842517181083,0.3040008146497111,0.39248690218511023,0.3044457289862396,0.225051209741556,0.3880650357744114,0.3264603045738591,0
279,0.930287462691168,0.9796318260839992,1.1215630306011335,1.1347446869631577,1.0487851145664226,0.9791343060274287,1.0670834073464257,1.0943531538563203,0
280,1.4104168159853625,1.4513802312572541,1.4099737776644203,1.47873427009775,1.461807918861006,1.4897890636939386,1.4226692989636789,1.387606878818142,0
281,1.6354956066746664,1.603615996089005,1.525861588215259,1.5528461589955196,1.6241387437841317,1.6051750756689822,1.618480405319616,1.5993234156255949,0
282,1.4547647104848802,1.5020574522780297,1.4722257451523724,1.4162979420738964,1.4407372556307596,1.3894163841598732,1.446724593690796,1.47562455407072,0
283,1.1392712373204676,1.225232111157738,1.1751644832101067,1.1518740580334288,1.1531941407470363,1.2644688143873515,1.2656536278384012,1.2153892390964787,0
284,0.8205752082269664,0.775295337756001,0.733611725682836,0.701599195472832,0.8225450054517053,0.7941437676502875,0.7772297509113132,0.7737706238765117,0
285,0.26743995473272686,0.34219919369593005,0.3021009029925912,0.23378519905972978,0.33493963127025655,0.32436579830070267,0.27744273525509605,0.3776214486223488,0
286,-0.11766524174499923,-0.1279932690467656,-0.1511314141226975,-0.11951443921873754,-0.15626554229939077,-0.17429994760741502,-0.0386598461940586,-0.15904133542647403,0
287,-0.5973046786368474,-0.47011309468143603,-0.48519032128399314,-0.5398632344489975,-0.513976772492142,-0.6033947775627022,-0.4438601429183491,-0.42154837575945303,0
288,-0.6938650652545627,-0.7664866725597571,-0.7710215593860897,-0.7343749738865304,-0.6960278004535629,-0.7360892913717556,-0.7376253137717649,-0.742759249112452,0
289,-0.8055028442556383,-0.8476103166439096,-0.810359563430008,-0.7691768334890647,-0.7338326905291257,-0.7477325009164947,-0.8342739343639931,-0.7186005550262297,0
290,-0.7842657525141823,-0.619493844048535,-0.7139567137910144,-0.7030446620548941,-0.7099341500261686,-0.6739911341407591,-0.6937299187571747,-0.7098082759389972,0
291,-0.5616226629303486,-0.5248024000358501,-0.5539672874573509,-0.49602240112548773,-0.4818026740690503,-0.46026475881918255,-0.48520975461842986,-0.5357225130771837,0
292,-0.3207543368863963,-0.2686524772709632,-0.2300993690282656,-0.2781504329622267,-0.25533669485216925,-0.27489988824658507,-0.28624926781843596,-0.3562746871416229,0
293,-0.08513349936547313,-0.10810903672029916,-0.07499141244663804,0.03127263768017617,-0.048829093098179774,-0.07843757003001031,-0.04346150245256651,-0.1678297644422922,0
294,0.1095138114367868,0.06535410571194558,0.11311723464385358,0.12244057893542117,-0.013920055082918423,0.14616413740705558,0.20406981752712344,0.12311342737636453,0
295,0.23491600268846413,0.2779711527684808,0.2611664025807044,0.226125297911359,0.20473303569393086,0.19485886200322577,0.2879442493368534,0.3334661979867025,0
296,0.38431981810469806,0.24775257801918946,0.29151782904760987,0.3315168688334291,0.3256139411566705,0.2020629469193761,0.3272167033902315,0.3453644560823793,0
297,0.3398570809885212,0.30229226725200475,0.4349325662038116,0.43111202872261634,0.31532724762860925,0.319172448391541,0.34536294770110143,0.39363872677360534,0
298,0.3134157506447504,0.22813171236108304,0.2772377609598047,0.3294641758029587,0.24975467113313737,0.32401320153866175,0.30387324737730853,0.27546625822132426,0
299,0.19874051708067175,0.22050453082907928,0.19342412655980898,0.19937390055499085,0.12306687900191868,0.19007958710224382,0.08049179549618636,0.11994903282536926,0
300,0.04265373870495825,0.07082926756825672,0.04144640935684657,0.04059334492713275,0.06240695784910471,0.05697830171483162,0.08127040705163055,-0.008955769356757431,0
301,0.07424842727059182,-0.021689823034921788,-0.07611257690734088,-0.012878820324337396,-0.040735579930130675,-0.003876698228506536,-0.046738218795429484,-0.02477233016943193,0
302,-0.017402530274684996,-0.04505418098544163,-0.06924832931902418,-0.04066448856181135,-0.111893041013709,-0.07476312518026884,-0.022597933068786,-0.0441966287955125,0
303,-0.06890984469228295,-0.10916646300615691,-0.09066792682746724,-0.1476148607797578,-0.10510253754286696,-0.10587030943135353,-0.09729416682081717,-0.04953997194440534,0
304,-0.05315818088748399,-0.0682871158688654,-0.08341688640708791,-0.11145758908031263,-0.15001979828125941,-0.08997230457503315,-0.08846813803443954,-0.06034402658925721,0
305,-0.07154293929916847,-0.09965883377191852,-0.11228895482538448,-0.14342767879831114,-0.08297203968151134,-0.05025292650984601,-0.07336835143896216,-0.11351752065972778,0
306,-0.07475065612129862,-0.16105034124451428,-0.05263907441773031,0.01820677732371334,-0.04084289910684896,-0.11722185611921332,0.017955605181915968,-0.0960687385493776,0
307,-0.046702261413118264,-0.11600932001127212,-0.029420569892978834,0.03375111663686013,-0.03809006713261723,-0.07223482852545887,0.034244034138680365,-0.08800934890547754,0
308,-0.03924055452265826,0.06297219411681526,0.05007062387055978,-0.08610982836590986,0.05959295153615068,-0.03508128711792584,0.04414920565237632,-0.07500447862095427,0
309,0.06369536581634903,-0.06197546853951619,-0.00811791220583541,-0.02435361771964738,0.05318334919519031,-0.024754629099682453,-0.0708003685905766,0.049665247649927954,0
310,0.03390410955692921,0.10704707368073062,0.040400512121866856,-0.005689781150365378,0.028337996284536253,-0.005364811242620289,0.030220696422787727,-0.0281557153768148,0
311,0.040302047157781344,-0.07364779403054107,0.06177407285568924,0.021383632372663407,0.08470178617829746,0.007396895408716894,0.117217034730861,0.0317668855656843,0
312,0.019745258657667682,0.06993587947752208,0.016749125568945995,0.07434617121422701,-0.061602572943748386,0.04440396234538186,-0.003287221493545038,-0.03865621278995491,0
313,0.06172506766079165,0.09297480429777824,0.01764118282217826,0.12954361641087087,0.1264809902449,0.020972170094615272,-0.009244079341666347,0.02119633557006398,0
314,0.020613858034857657,0.010107954013892105,0.005465980236562896,0.04819666485545301,0.01529116969998965,-0.07002336141881643,0.024095832468253614,0.0787809412394188,0
315,0.06742464210797855,-0.006334549574765616,0.05615174796822414,0.01745877360679436,0.03220732406267856,-0.07521290041450517,0.002452755157955957,-0.002305989735872877,0
316,0.010230718413101546,-0.023237819727833956,0.040946036275049086,-0.06821422626591987,-0.021639442289542437,0.06089492601176806,0.11406918276055211,-0.032632634502272745,0
317,0.0584242115472259,-0.05213785208008214,0.06458558639707954,-0.003926812990538137,-0.059836118876401716,0.03047975370784877,0.0027555431733515606,-0.04504089666599594,0
318,-0.03993969357484936,-0.17932839743537224,-0.0307279089623617,0.009324156459576918,-0.008631051840982038,0.05620673246173399,0.013066033809483988,-0.06474533879439982,0
319,0.050191928685236746,0.03830961849313734,-0.0002716937254199957,-0.10805019897761008,-0.07912335877694476,0.031701969044406225,-0.042348742468086266,-0.08964490719155464,0
320,-0.01947846053351821,-0.11434656307313562,-0.031003463719812958,-0.028617001083295276,0.014482182455719826,0.03697710479180866,-0.03627833531774607,-0.06623930264354286,0
321,-0.06143885502367252,0.009855658819924494,-0.022717286600355897,0.061484339475766335,-0.028242940575307532,0.030660239102850494,0.04727554727908204,0.03768294626069605,0
322,0.026557230780274634,0.05979203508127578,-0.03190485655103681,0.017545822600486406,-0.05069005509417599,0.03203270857214606,-0.0279857024562506,-0.05254556005953808,0
323,-0.008139533761942309,-0.012566287960238034,0.03225335061805372,-0.036594617551024985,0.03988346691629697,0.028725277590509454,0.0010074668634456692,-0.060600188400430535,0
324,-0.029553069022986996,-0.006515872172248728,-0.017040108156884514,0.061248606990747086,-0.03804906903291494,-0.017513909567580595,0.07468303114426052,-0.060096505379569114,0
325,0.05200774231546331,-0.01310938357434944,-0.03159654179244359,-0.050780348882261274,-0.06526933286542838,0.04321613225264394,0.0035767881254526275,0.005744426281664195,0
326,0.01500624146593626,-0.037728596056555166,0.01696513684328118,-3.049408641039549e-05,0.030330801417513275,-0.02024521775228561,-0.01563132947370549,-0.06728672169018528,0
327,0.0011868635447521462,0.0584435472263589,-0.02629407366325041,-0.0009608432921913393,-0.01700826347221037,-0.03484189297185902,0.04306799225050231,-0.0277095787067816,0
328,0.08871371910766564,-0.021952007217899295,0.03644823296211462,-0.0810029546025216,-0.04549458627745459,-0.0834128649534885,0.01490092576418072,0.011924781289217553,0
329,0.07154532181956944,0.017376725419494875,0.06419781448704744,0.003408879329321291,0.024797895418517873,-0.05410675033913073,-0.020569063399447852,0.026810382686341432,0
330,0.004448692088039267,-0.05339822800722657,0.03770383064209368,-0.03973925555873156,0.04263572258271428,-0.01790329159529194,-0.02276196918968812,-0.014583641338720045,0
331,-0.06981063311018224,0.037999158270248475,0.039092214836488934,0.02207889637525849,0.0552968979537707,-0.04451657211782614,-0.010820490085386972,0.03149484135535291,0
332,0.022320301053097805,-0.06235067696660528,-0.08005822408071454,-0.027333350980255047,-0.04666464629142579,0.0449239461062864,0.04238350266872107,0.03786376492622,0
333,0.036575859677747374,0.01663680805918062,-0.05886286550502008,-0.023042023925180212,-0.015114669221771562,0.08400363326102463,0.019536786702392398,0.008219041543684085,0
334,-0.0006079261991663843,0.03486012933600369,-0.03149555162345173,0.0399696874780584,0.10206677740001374,-0.001806263299553154,-0.04488521101938724,0.114144947765297,0
335,0.02526273569658435,0.02829701938702492,0.03882192045651685,0.014155154307742591,0.0646550954708789,0.003097468227786233,0.03506849679429961,0.012452076910432763,0
336,-0.04985741026075516,-0.010508175393897434,0.020933766122098272,-0.04093833804358104,-0.014221709211578379,-0.0781863338144047,-0.046748836802920135,-0.033466718742699304,0
337,0.06612509679937932,-0.06068554255731351,0.03485625833572699,0.12477195194144278,-0.015988600661355375,0.002249086585494904,0.05668756419798295,-0.008015717851096348,0
338,0.044390443320013045,-0.081490228855471,-0.03125729888163175,0.05730102989111525,-0.1155160954342627,0.06401149616080921,0.03161956441513921,0.028547648692879943,0
339,-0.02891359232032325,-0.06347442688046098,-0.0009406883762074917,-0.0250446776538415,0.028913767161396462,-0.03903913021861712,-0.0411776450957107,-0.06438104159936289,0
340,-0.027530553762338057,0.0784193871860583,0.030251025141665198,0.08556094719720801,0.02798456802985336,0.029925098319853963,0.06520184788162033,0.04572422373658422,0
341,-0.006723406427175422,0.08026899257225499,-0.05814489282175348,0.0022621462045085867,0.09911919029369733,0.012091878542230355,-0.00032535230695962324,0.012743389735100181,0
342,0.020109387477724176,0.08348415504977046,-0.02246883040871546,0.07179488226343834,-0.014915719885479406,-0.013048706330222874,0.07192573768566027,-0.031244582751823013,0
343,0.05081403367386861,-0.0006766875951862654,0.0826054002550952,-0.04445439616531684,-0.056586717126148434,0.034358935883564305,-0.005696237938411176,0.056364738061183244,0
344,-0.06145859838838983,-0.005217724626728953,-0.037672175612185325,0.05144851024348909,-0.011182205871128382,0.01145710938214362,-0.021948649402973103,-0.022379567064165936,0
345,0.032867523719129446,-0.0840651286551083,0.007262417371948756,-0.07014480998223241,-0.013786271088836755,-0.05002287594879849,-0.033722822801345954,0.07348864175672919,0
346,0.048763322987021886,0.05184911231933598,0.029024326943401763,-0.050958443611372535,0.027635537827328832,-0.05678805816864536,0.06715865732176352,0.0033642756758186414,0
347,-0.011578677531788461,-0.012965977070289524,-0.09593819797824002,0.04885351337511751,0.03505348875692303,0.014929355344348779,0.008981231599755541,-0.009408941303500786,0
348,-3.362982072888478e-05,0.00854429703484452,0.003171966983424978,-0.037241614762838084,0.027469321817100704,-0.02708216980611861,0.0004720235800402794,-0.027548578740182912,0
349,-0.050925061572203126,0.023503125058555493,-0.0013800270732396045,0.07799963724404234,0.002901663480593029,-0.005651570237857257,0.01586378284221588,0.06768226880825498,0
350,-0.05214830486575306,-0.07541156468833542,-0.01609921471633835,0.009964758351256856,-0.013288926524915553,-0.032353921189653155,-0.002749763297728403,-0.01908409890714794,0
351,-0.0649667302415924,0.03947476519964521,0.09153788465970998,0.06696444848536355,0.023328620494609143,0.07091489830703554,0.021430029511764415,-0.025981045777640852,0
352,0.03825601645924923,-0.05281051441222758,-0.004212008345323863,0.05098471925081958,-0.012418652388754546,0.03174418771817705,0.025659257830026257,0.04074807467279806,0
353,0.025474765771866126,-0.06666173291098468,-0.09018208661043664,-0.027523317924381403,-0.013114899829259894,-0.046535645061901366,-0.07124942808537733,-0.016826500767331335,0
354,-0.06955348530828608,0.04652086021204743,-0.10382293731520441,-0.014042649721328765,0.030320978724513628,0.06557068083462946,0.0056354756906483415,0.010057263944316067,0
355,0.0055632444963052505,-0.015246189186590084,-0.09597152033088883,-0.03575802623287611,-0.04425984036608429,-0.045846730771270876,-0.0024810993889349403,-0.04583019118213285,0
356,-0.019973389740851808,-0.10389530735113454,-0.026893270216053453,-0.024378228750012377,0.08352552522420545,-0.0472659344028892,-0.112734979067163,0.13240588822911745,0
357,0.1204859013521961,-0.06161735879470649,0.09853705327804861,-0.021948517596522832,0.10170068287574255,0.08662598521467157,-0.030987949128937767,-0.04940614967397509,0
358,-0.02119636847801848,-0.12050105596528823,-0.020223639835404844,-0.002257901535376814,0.010672023225857752,-0.018905399287185754,0.0389613717800599,0.053247238009458325,0
359,-0.0578886740541495,-0.026147351489255236,0.04696256353075333,-0.021989962805525676,-0.08135609066045596,-0.05263566643711447,0.039671601258517306,0.02284523482832281,0
360,-0.07105908958353853,-0.011484834434029274,-0.0054016630770761485,-0.0503853791882338,0.0003299215870957368,-0.0515727966044216,0.041973028445338866,-0.0006817081933658287,0
361,0.00754101408022932,0.042763472083773,0.04536950170684119,-0.06778002173477356,-0.0006288519712185825,0.00397669825265191,0.00914488379785194,-0.008341210695423408,0
362,0.0034932397196281778,0.00087893110966982,-0.043964271380884816,-0.018130509579269014,-0.0006337384493784494,-0.001206455901128872,-0.08570675090350542,0.04898015645560548,0
363,0.09688875063028654,0.015718618919498592,0.08662500044132228,0.023123416786104325,0.020446614492283924,0.025392906038587664,-0.035109273495427744,0.08572463403894161,0
364,-0.0234803812759755,-0.06619263267413654,-0.008606741202343516,0.0030067039669548854,0.039179105701860575,-0.038965768645882436,0.04523590060495999,-0.00649809468552544,0
365,-0.12373323438268848,-0.004609367426044006,-0.024005606144072798,0.002571884154253289,0.005132396966379585,0.11139455000600884,0.03473152461906054,0.02638326972894335,0
366,-0.06395609526889784,-0.03761475880275196,0.04943703143626942,0.033767249572716894,-0.06929198063070476,-0.0020184654591557387,0.003938268305750447,0.059526059216760456,0
367,0.011207120162230645,-0.016675362637699562,-0.07256957764215963,0.05904126181461961,0.03298397175253274,-0.08215575618734702,-0.05517756064686425,-0.07191488132602317,0
368,0.06245855220298896,0.02608200059635243,-0.006850013974873314,0.015496167837089991,0.02279279862988992,0.03413138583577854,-0.09702902041954103,-0.03916177504019669,0
369,0.06809866266201851,0.05205562688023426,-0.02810133797336903,-0.0015400363294026146,-0.022411021923499412,0.0530964106332827,-0.030763028395435973,0.0122682323769696,0
370,0.03737634151996566,-0.023039205081760206,0.013281098906802569,0.027680899456976323,-0.024658577269261902,-0.00835226048458973,0.07323029192615299,0.07273222664130069,0
371,0.026785890354826526,0.019215494696936005,0.026627854473386437,0.010448925875044104,-0.06523716910746266,-0.1058037833420552,-0.09591293988549089,-0.030108568454794357,0
372,0.015666156837671558,0.00791140567676914,0.12405641921138601,-0.005597232519424889,0.11261650195392317,-0.03289731306472067,-0.04966219936232939,0.03902446408295494,0
373,0.0511800660401495,0.06020419393175701,0.09649936539232006,0.03841941158554761,-0.015024091079925507,0.029848058449214048,0.002328265907144453,0.056525144007613555,0
374,0.09775751586007833,0.1381355303273568,0.079275712287103,0.08506778382164173,0.13222249407132933,0.06765234881804592,0.05927467751688598,0.006567578648650985,0
375,0.30060309372851135,0.30163372931508503,0.18900008349846642,0.21200210126706473,0.20470832726067775,0.27338047031383006,0.16282591381038877,0.18288498453034374,0
376,0.4265466702103472,0.2965960379879471,0.24681134587434506,0.3281099401776069,0.38601828252323894,0.4401834633333084,0.3636959527917084,0.44501443817805003,0
377,0.6513159501070233,0.6617157281034991,0.6946950312248431,0.679928220621448,0.6001726235609915,0.6322669868447519,0.6779953541546807,0.6329859759877509,0
378,0.9913604233097003,0.997525316912129,1.0457177505185473,1.0754807969453204,1.1239232615697028,1.0514282564198243,1.0408518009770398,1.0845728118270037,0
379,1.5682746682400104,1.5409436975148407,1.5223460514430975,1.7082019705533587,1.5323873217926471,1.586677043704778,1.4364142474363344,1.5086497662003862,0
380,2.1072312946710112,2.0936178711386892,2.2141969394475405,2.254525113691188,2.1964866601993855,2.164151345421638,2.1953341731788028,2.2875629522511165,0
381,2.963767637752408,2.94276081769598,2.957852258377823,2.9474752637427453,2.937897584485253,2.9573320820780205,2.9358666236815134,3.0342052074771644,0
382,3.8280159772423117,3.874491703824902,3.899095735692189,3.7413513943364034,3.830729409486484,3.798992508476994,3.7043698539477763,3.8793736295159027,0
383,4.641334898291897,4.682230910946601,4.664310739696869,4.656674127856386,4.581629355482374,4.715726660275768,4.626404102716472,4.604909513578161,0
384,5.551837751444991,5.446774942576415,5.460519828956581,5.41542455039816,5.506204311367094,5.525569936729162,5.539356834523393,5.533494602517214,0
385,6.199451843670965,6.222785285211209,6.17574237485538,6.132540030679485,6.260280421831869,6.167744231099512,6.226617257843429,6.189606322340582,0
386,6.730268114750442,6.760842471291085,6.70178383281241,6.682216443303654,6.683430606762253,6.766169527410263,6.776440694121189,6.79536720250229,0
387,6.9339806233244135,6.958497115366023,6.948941330903526,6.963880824666116,6.935261706144628,7.004065710909757,7.002772445510491,6.8877651599733865,0
388,6.85776392162333,6.852776652458693,6.761844019080982,6.836821758401446,6.8856702211362,6.895427128605906,6.937692152011394,6.860673243853155,0
389,6.303140403140496,6.3790646725496885,6.278226357394878,6.29952118637859,6.328588595943987,6.25460065118134,6.322303171095945,6.284672329195995,0
390,5.471684077864375,5.40114117478421,5.504081135485456,5.408141393070936,5.434963383578527,5.453132364355053,5.472826461142646,5.47216911697059,0
391,4.272982926871232,4.225153160628748,4.287764447277558,4.293042097763185,4.181854434707323,4.375920445206186,4.281999995479165,4.296618796660377,0
392,2.916973519846958,2.8858943061516324,2.9685693318161874,2.8991934188078465,2.915436362557351,2.9655225109623027,2.873259362605618,2.948175801801898,0
393,1.4359665044075012,1.422493421564031,1.4752514220806645,1.3760721372262354,1.4535733023690471,1.4396374222946693,1.4306533846817047,1.437788733662495,0
394,0.06394090070341353,0.026552374449664504,-0.050031783782533916,-0.029279635295967665,-0.04052013496276724,-0.04101318247428503,0.0661944836891399,-0.02951370395056493,0
395,-1.2342608162096416,-1.2751574556818777,-1.2953885868179318,-1.3194808088381516,-1.2750062788144798,-1.3740556980051994,-1.359806453406624,-1.3166413382271611,0
396,-2.264615101150909,-2.2229318448846307,-2.249025390092499,-2.248962170669193,-2.3256917246869446,-2.4069593609074964,-2.325272628573293,-2.375916723761616,0
397,-2.9515152589438265,-2.872879408423713,-2.8525751884875974,-2.840905487511614,-2.830672893868801,-2.8428966226708154,-2.8464323595564496,-2.917973343913447,0
398,-2.989260220084076,-2.958514555092637,-2.99146573506045,-3.06741339259378,-2.8615239768969816,-2.9851548971806237,-3.1049807176589264,-2.975701022378656,0
399,-2.72740045020139,-2.6256406756683193,-2.8015792836852125,-2.7392439080208644,-2.7394222428131623,-2.7508747887426233,-2.813650904988239,-2.802267342930341,0
400,-2.301293801942516,-2.2397367806568833,-2.2275398849755708,-2.183561542842139,-2.2842244966775884,-2.2719297281754836,-2.301658846320747,-2.304899981861506,0
401,-1.4837783184634619,-1.6123906122812344,-1.5892365814856397,-1.5437324137082813,-1.5195621502451848,-1.4944913392447576,-1.5512695388393056,-1.508514062863494,0
402,-0.6837271406325788,-0.6843010106590829,-0.6924520063028091,-0.6456426063103313,-0.5831100912630309,-0.5722324490217909,-0.5551215188393499,-0.6324698244749202,0
403,0.17697967407413312,0.24121300518771113,0.23842954459350224,0.20633510082320825,0.24800371098369184,0.21799012500282386,0.27189232907272265,0.16273653775719393,0
404,1.0233169204674115,0.9493703009587648,0.9404711491387739,0.898403078756336,0.9501961944724933,1.0423818941993273,0.9544593796368641,0.9501577491433948,0
405,1.4126373100385332,1.5092807266991102,1.3993891077260392,1.4364021698803109,1.3736568588830584,1.4717639119321904,1.4320107047015738,1.4857159851965933,0
406,1.5539896043234127,1.610691732589972,1.5932375545021518,1.6474522540910133,1.5120244640618592,1.5656259586955856,1.5538741739898678,1.517465520344932,0
407,1.5447204465438757,1.4596315096365216,1.5259471871586179,1.5244466693962517,1.4714816436286133,1.5327822967883515,1.460525625057666,1.4838039180255742,0
408,1.175152184642429,1.1870048098250423,1.2071386385271736,1.2241155758627627,1.208844400932382,1.1880103468238912,1.306722425169831,1.1792121120816323,0
409,0.8291608532869832,0.8269393862477569,0.8115560779935121,0.8319888247395937,0.7973718621605592,0.8466235689981618,0.794016876994445,0.8227720163602078,0
410,0.3667393546926574,0.3626019132564713,0.2968967004224221,0.34599536877648995,0.36995094579896665,0.3987961363144387,0.3345177534339709,0.3608162431549096,0
411,-0.11929717062353105,-0.11201856851646927,-0.0957355851328473,-0.027246474447718202,-0.15739374778730625,-0.059276684226879234,-0.08577178193827599,-0.018012393628021803,0
412,-0.5492536645373368,-0.5082308613522074,-0.5218470111827435,-0.5031160509449125,-0.5574699606207288,-0.49197684516490664,-0.5700417408333884,-0.41201672011893087,0
413,-0.728234800906651,-0.8133368701422616,-0.7135091592699458,-0.6652185818515537,-0.6947181642054154,-0.7662047479388073,-0.7001959453507011,-0.7997719331747584,0
414,-0.7857304192675979,-0.7905541361041761,-0.7794207186678739,-0.765409814980437,-0.8703292705468406,-0.73350264766038,-0.8147226967587115,-0.8015636688894612,0
415,-0.697101989745363,-0.6825285361064054,-0.7721558851348957,-0.5984056482111794,-0.7370366470420646,-0.7462435076027075,-0.8156888589545241,-0.6815001842445548,0
416,-0.49013835717148674,-0.597380458494823,-0.46805583203968365,-0.5199712869521016,-0.5798867360434428,-0.6072853609456772,-0.4803999291588581,-0.45958206390969514,0
417,-0.24615554844184726,-0.3362999703878397,-0.32745471292247935,-0.26200224250308574,-0.33120285960667684,-0.2917880562339208,-0.20046317478987927,-0.3963710751900679,0
418,-0.16004616826491763,-0.07484850103526791,-0.06541470504868327,-0.07794119851094486,-0.11876247741346457,-0.04830067279536758,-0.04242454127868638,-0.15828534138322092,0
419,0.014906797414370995,0.15305915769999434,0.10120425650324862,0.0477571941010468,0.058833409979760935,0.029428709527962275,0.046706297294362924,0.025908532932799988,0
420,0.32946960140366477,0.23298633256948176,0.2203557475744087,0.2334466362378733,0.349766194601574,0.2552603715875055,0.23717386131869403,0.25973691863822357,0
421,0.3442002734254629,0.3781099398984272,0.33432903755512455,0.3213594878487028,0.40316216791372195,0.2989045716497798,0.3803724089538415,0.3231852726385868,0
422,0.39006185006521155,0.2811703087258667,0.3092107762973643,0.3613016875947844,0.35679390751423135,0.31962023519499083,0.3903797583556495,0.3635689777317311,0
423,0.2873195252725816,0.2786147282965885,0.25475445467903146,0.2835327603104471,0.22792093124451407,0.19076725678147152,0.3527539786892991,0.3528109240608764,0
424,0.1446130159595299,0.2083195221012136,0.19429535000888667,0.1675450003441724,0.2262827296258666,0.2063175031605039,0.21030108299561479,0.33890591171469164,0
425,0.019116951710729795,0.12254956984319668,0.041996161021191795,-0.021157616375315283,0.05019530028960833,0.07192409944783569,0.09101778151898604,0.013091076983449218,0
426,-0.021788728951707907,0.004994010531909775,0.04289909729032467,0.010154039434980356,-0.03387871447655534,-0.030245505184162892,-0.03172947892835917,0.045267778369546464,0
427,-0.014956530512671831,-0.06111405824376169,-0.04948343120701827,-0.12781762296311877,-0.09714217328611713,-0.0792156628369222,-0.019553460164518775,-0.10325688552113496,0
428,-0.19520199799948965,-0.03263440196973376,-0.08271884689635427,-0.10686514340069295,-0.0770630968075382,-0.09782988366850108,-0.11931194716854934,-0.1068545521381633,0
429,-0.09422534993192218,-0.06033826152872016,-0.0978179110555449,-0.10992632093690993,-0.013633611431026843,-0.103638796327099,-0.18281252396788092,-0.18206158043751997,0
430,-0.060480428614272136,-0.014355881055856681,-0.08534443554084338,-0.061895270299088666,-0.17167896153408463,-0.2134166672180483,-0.132957800202167,-0.12026970258075528,0
431,-0.03826559091150466,-0.04451891305956587,-0.08800588244228591,-0.08071163073663815,-0.01095774522510605,-0.08427234709633305,-0.07505248493804127,-0.08226545895331029,0
432,-0.014190008836826022,-0.08468154573907835,-0.08199677211558311,0.0028355221492638236,-0.03658061977744062,0.0015026270236167955,-0.06298442097365081,0.09874539045586947,0
433,-0.030391202433474165,-0.06562010843619685,-0.09302263875004073,0.07062407182608094,-0.0336722458884903,0.018023549179841405,0.049134540386241925,-0.03513667390430916,0
434,0.013874509960768364,-0.022923138567068978,0.00815043841638386,0.015284811098946947,0.0459053464986583,0.04312996540016438,0.09669485150255422,0.06542831285485506,0
435,0.02842908662301295,-0.02166108598311643,0.02957060890053452,0.02932845490010258,0.14233785548594835,0.20002720595987825,0.06841876547440184,0.03500205528403889,0
436,0.014268493411043592,0.0027321864975258375,0.09552679868403238,0.010736830541493984,-0.11176024219587655,0.05593792581958046,0.008206975305577482,0.06881227058811368,0
437,-0.025999643081757073,-0.025402700411591334,0.040156206847905246,-0.02313555328225345,0.07411416025940494,0.022373982210201822,0.08524034590057052,-0.0768261927105185,0
438,0.04446761809449728,0.0694085632344979,-0.058937355672819845,0.08461601140794248,-0.012265112402575336,0.10230245062590171,0.03796401132229976,0.07554764828143476,0
439,-0.032311016873493734,-0.09954890167477407,0.06012848746417447,0.030846292192465805,0.0061908876633934495,0.053434381864179994,-0.03265462848627289,0.07783995021837971,0
440,0.061852719960066645,-0.0549344609165485,0.060762714822126244,-0.03361842277177125,-0.02550399772592949,-0.03227722939821105,0.03212976194323938,-0.005583134850085989,0
441,0.0388269711508946,0.006157955498314998,0.03201171412004739,-0.07292007020653912,-0.045137387066042256,0.03175798436444912,-0.05073055033017373,-0.043354005286889,0
442,0.04769456575476218,0.07619924352698751,-0.026623718446197077,-0.055430306335852046,-0.08021464223818889,-0.1613556120241338,-0.03330751029224513,0.05398107791574844,0
443,0.02935698834346659,0.06601449234696577,0.056300865117771826,0.040632596441650536,0.039653718048731766,-0.0026130452705246093,-0.003310917329434818,-0.035210061538693944,0
444,-0.045806325433178044,-0.017952632861419772,0.016612986129785307,0.04179278129359536,-0.011530791480502605,-0.040532730684364957,-0.043408660613650396,-0.007575868662165435,0
445,-0.0022089204366081434,0.018294022286860067,-0.025209905708562977,-0.07998826802585754,-0.009864369071772506,0.016466909958329314,0.03076409086079292,-0.05158954223435023,0
446,-0.041500090101140114,-0.00840253330707641,-0.055958365246915366,-0.034155838310362646,-0.010120570221276957,0.013493898008232034,-0.07580727813044916,0.09905181453950773,0
447,-0.012418423009199346,-0.03713320890725264,0.022222475364757178,0.05482158555433015,-0.06299126145196816,0.018784605135157128,0.020518673452623523,0.04687106571721797,0
448,0.03308342743133999,-0.04894124030345083,0.0763957385733579,0.013954139950895226,-0.007565971191631604,-0.01920474532523275,-0.03351297722571608,0.04618504488177961,0
449,0.032741940171036606,-0.017833136485754617,0.04747277926336178,0.06628913818429269,-0.0037277652923109065,0.015718264113779606,0.03925313365176482,0.06638085956352094,0
450,0.009647912792834319,0.056601643411804965,-0.003428453541055916,0.03340948631969212,-0.010994018028004916,-0.026896147775291267,-0.06613495275528264,0.06836405299257564,0
451,-0.018183161387609243,1.706994215325253e-05,-0.008322723510426858,-0.05160476686013913,0.040370366218405423,-0.012701752816605842,-0.04711417976808541,-0.06968734936188657,0
452,0.051783901277857765,0.02387408539206152,-0.09023754115145548,0.06191433281727466,0.024376650568503633,-0.049304497992152155,0.005267578859136775,-0.046023302183040474,0
453,0.09429459785270282,-0.04018499612434381,0.02072635894022531,-0.027193115877484856,-0.04186409460037877,-0.0167348256447095,-0.053710036585855395,0.09751584596658205,0
454,0.008516547927817543,-0.042579723988609854,0.09897703284749122,-0.012042904516721022,0.05916056927718486,-0.02074873742925126,0.028508070257242616,-0.07806246552470722,0
455,-0.08449573879737511,-0.05668165715404381,0.028101915930428368,-0.018570711909375672,0.030075343248132436,0.07774947368942974,0.021975664846537697,-0.02321072001101006,0
456,-0.0013181730563015673,0.030211024790386214,-0.027460999459110593,-0.022530250481992448,-0.07105656594210684,0.028592609071593826,-0.09529854331974003,0.05167115644875367,0
457,-0.10198589708003283,0.03626022975135746,-0.02767255011354668,-0.02966694226860029,0.05911080337289891,-0.01839848167799431,0.12807660851491284,-0.013097832770550388,0
458,0.095771865429139,-0.007844581342261977,-0.032747148817181486,-0.04920859824035325,0.03768308616093284,0.014874187647224873,0.06833439052956661,0.020222619276424082,0
459,0.0628195241969234,0.009985022796192507,0.022970114123551592,-0.04567006111742012,0.01425253872404638,-0.04409292793859126,0.02335347514900656,-0.0009936102096409494,0
460,-0.02582734121733536,-0.004398239399988132,-0.005470238528527946,-0.05244546123847787,0.024469766250977982,-0.04908435921554,0.057472025281164664,0.030898428176947254,0
461,-0.05740270729053852,0.002137938005997147,0.05336997481154312,-0.05479559118836956,-0.017996268165174936,-0.08976730922258154,-0.018202005576624238,-0.05794797434728159,0
462,0.025604336938661043,-0.09340406895079265,-0.02514661652804471,0.04029470865690908,-0.08505512254857234,-0.04000954430627883,0.005615451657305774,0.025035925016120213,0
463,0.06974677383805473,-0.04566630402573678,0.03358223334244386,-0.025058484585654683,0.11522564928922038,-0.09590929661101391,-0.02386055018207936,-0.0006915164575376754,0
464,0.08375873711393177,0.04330597341004867,0.05485830895888237,-0.035370506686948,-0.06109335330440716,0.039844588057684656,-0.044381162836772625,0.03932688281400819,0
465,0.026797850648074484,-0.14184609443863122,-0.014738539864232866,0.005799587298077983,-0.019369166379042038,0.04663396972138807,0.008524227632732488,0.036088967351588286,0
466,0.030755252345517202,-0.06257556266633083,-0.003989988659729112,0.10533330405083707,0.058726290640215846,0.021032064969133294,0.05181824918109152,0.028624457947363506,0
467,0.028341309773182197,-0.05473228593968338,-0.015628775711022027,-0.0674562768516587,-0.05408669320501132,-0.021189826242746734,-0.04953507463725484,0.02287829776330235,0
468,0.00858677929708817,0.012933629423948354,0.06469217778690896,0.025162091063329388,-0.06009946495781962,-0.02138282283051776,-0.13702550270177494,0.026877396588545183,0
469,-0.015828329105393793,-0.039306706049280105,0.03967501061387706,-0.07843363198567015,0.015508293885632414,0.017147928178825066,0.07700420459583972,-0.019430878715325145,0
470,0.025063915835238877,0.017353483035319705,0.0001716975116543755,-0.07057262228520922,-0.05344035429616736,-0.03802792099664715,-0.038278894030918074,-0.035356670468009,0
471,0.009457646791716772,-0.032800844399095266,-0.06228715589976659,-0.031435239740825495,-0.06577495208545182,0.015428693144725647,-0.0469554482932265,0.09313817010931667,0
472,-0.027372090759908894,-0.08266731315688787,0.02493245681194149,-0.09378295373259796,0.051694825492436786,-0.015145912946116055,-0.07441822367791474,0.009263995343773377,0
473,-0.04509860662172836,-0.009461747047966679,-0.1461037359534188,-0.08433726470312863,-0.008399232718773462,0.07473886683306293,0.06489789792564125,-0.04703587962073619,0
474,0.012544774666923405,0.03639269439669737,0.11269597587051465,-0.005000124004802313,-0.06813163151291497,0.01760223208331773,0.05294200015132947,0.056916182366297786,0
475,-0.022159054500255057,-0.05518122197789772,0.0647388106774184,-0.06425356126942731,-0.023083923753563926,0.08198097487837025,0.03453494112821268,-0.019703878464838825,0
476,0.02159133641527083,-0.0662206615025168,0.010676383493650375,0.036838287573260554,-0.11247705458703253,-0.01044458593517801,-0.049561499507534426,-0.0050695467968516865,0
477,0.03411384695649049,-0.08333940288297849,0.015920897917816767,-0.012858968192954604,0.026463601872753487,0.021835935256233435,-0.0044969320342523765,0.058900387744120396,0
478,-0.032095770386699134,0.021547058524984623,-0.05727814408978181,0.007756162582596371,-0.05737389059396877,-0.1169796367848192,0.011356914947049036,-0.09524843343621647,0
479,0.014457999425191386,0.023260506326276922,-0.13879231765581335,-0.07547680951555889,0.07301651254507718,0.0002396701803384207,0.008849167642833704,-0.08540848241904576,0
480,-0.02200082913090484,0.01953856420762712,0.05190558724539182,0.05677042596961135,0.06396180054061507,-0.056446094000528996,0.018178750340988144,0.05966482973558281,0
481,-0.065140310058571,0.01995062922416741,0.05021590730164668,-0.03003829771844586,0.07142639271740055,0.048611696856816745,0.001600108259656347,0.052407472388200524,0
482,-0.0271055495074264,-0.06714456808450389,0.03888053425439634,-0.07702983083785547,0.022814175980816146,0.004733166652533782,-0.055245561036497214,0.03695574829462124,0
483,0.04457928565662554,0.0226044188840835,0.06224454186184706,-0.12170450760053417,-0.023054413104687563,0.013260905748236176,0.033692030830163665,-0.05714919185876916,0
484,0.09852190201203108,-0.00916683122229906,-0.037618637859145855,-0.037349383796537794,0.021007938103067548,0.0275618543207681,0.023612889905219186,-0.06609586877837789,0
485,-0.07700456952080256,0.04788043611032028,-0.036602481865102454,0.08367539379959824,0.0013255452282308448,0.08888195785636992,-0.026452317750481322,-0.02231012884732824,0
486,0.013736021084311592,0.003983760937526666,0.026356123553055243,-0.07377810021066526,0.01426240858138173,-0.0398726545741301,-0.03562921300738349,-0.002545916425206023,0
487,0.04692859329366798,-0.08938129185258077,0.015288319211557733,0.024228557431947108,0.024294100315812178,-0.04762835338622085,0.037077638423297525,0.026858958232647254,0
488,-0.03272633427151267,-0.11080927997380989,-0.05877456023441776,0.02035634729911088,0.022659103936730738,-0.09534079183840298,0.0014320404599668015,-0.06420720974028395,0
489,-0.026257572150944198,0.0056452982699035275,-0.04749851382531062,-0.05326079824368496,-0.033464024836660576,-0.11642983450925477,-0.1431268563706024,0.035471907673659646,0
490,-0.03506883530612038,0.036009852125522546,-0.02982804435845637,-0.004209894022903516,-0.0697616140923311,-0.004633592057738946,0.00432446446964993,0.034637465424878104,0
491,0.09752448033298002,0.05210394015177628,-0.005872411954574192,0.0032495395792909386,0.0735161031062326,0.01589436749382442,0.05424770533064401,-0.08460038744049285,0
492,-0.014315559000051745,0.0077820504699396675,-0.05743695461399743,-0.04502149261245288,-0.003949265708813021,-0.04243198947939566,-0.018787125651458365,-0.012516108892320436,0
493,-0.07601942325901885,0.0027859992947145244,0.028816294656342212,0.07201646718841569,0.059268050486590576,-0.0027672974414456528,0.10743571851317203,-0.027311192283656787,0
494,0.016519776664756555,-0.03628707054595099,0.06207877104586168,0.024575741352709277,-0.1263800334559085,-0.06741163162432745,0.05523556082387206,0.052224256153970784,0
495,-0.042905171079810935,0.007039578064067041,0.05035920374077144,0.014050550795218145,0.004601824154895871,0.08469786497930186,0.002664359640046546,-0.02002228730479679,0
496,0.05763630682516742,-0.02671328985821624,-0.017552131040596473,0.07644787979316653,0.09555418100803656,-0.0796055820205433,-0.034646348250734454,-0.023062480585744678,0
497,-0.004570514504868858,-0.06154050896716248,0.04553749968387022,-0.07147110325531317,-0.08166062692146306,0.03332011058615602,-0.02367146744588805,-0.042476271747590166,0
498,0.03920520284618624,0.0003361968840713825,0.016435385419305705,0.03676464580124615,0.08116150964321371,0.08494732153195719,0.052204420083555386,0.07739702327467007,0
499,-0.0030983324057659994,0.008406264722700924,0.06175492945911202,0.10088108195329402,-0.03280122842837242,0.03895690313519432,0.016094985445258767,0.1307137233546136,0
500,0.1468748181197333,0.18105071438980797,0.19406731239117633,0.16929219908494986,0.07319476345781026,0.20005621266463294,0.288948749923483,0.17667940558984627,0
501,0.3018733577803202,0.3114067609376898,0.364695513029088,0.300131610349584,0.40352231569628677,0.39245876689216475,0.38097787315836995,0.31883055050698045,0
502,0.6767313500834956,0.7144637082472612,0.6287338089889796,0.6711968210321289,0.5753929771528786,0.4607310740309126,0.6233919831390758,0.6771351389694013,0
503,0.9593979920350567,0.9750285045588942,0.9921255909514846,1.0168629358321695,0.9889936245485719,0.9877665506825176,0.97738498442088,1.0353686435881468,0
504,1.4049223874604537,1.4865870389182314,1.4764173374672325,1.5093032929962957,1.5301872063695026,1.3725580452596535,1.4974492199477674,1.4951705109340288,0
505,2.251031830633883,2.130901818905842,2.1210366844426733,2.1617291681268958,2.0633276944395678,2.078003759989661,2.109354309446438,2.0473486213346845,0
506,2.8599844526620664,2.8449026944529576,2.923026984030768,2.861972735202609,2.8445576148938687,2.8277812476285913,2.804167895452658,2.856929832755724,0
507,3.752154248672799,3.775440075110652,3.5965090211993953,3.7125634074022233,3.666322337850358,3.6453882155036132,3.796393584959236,3.6383586341316576,0
508,4.561569609192084,4.521143352616882,4.579742400495552,4.635585576441179,4.424641313557972,4.523638301955125,4.602117091455225,4.492629850104232,0
509,5.421817406445725,5.365498595213703,5.386144913420416,5.244978581699744,5.375835475356836,5.463623902525176,5.304696509115994,5.455061629208924,0
510,6.076967439363552,6.081858740669101,6.15106613892896,6.099178538703741,6.1397804946796555,6.153940885679487,6.166262954616332,6.10014313918185,0
511,6.656075511647142,6.738324186542065,6.626847457034217,6.635221009332147,6.664394332311429,6.702576428945463,6.607036533415161,6.656102025288284,0
512,6.965258781826287,6.987290936242874,6.900908980439794,6.990720879512575,6.865714875851323,6.975442010168439,6.954144548236952,6.866681447572405,0
513,6.949292411297428,6.917534780224878,6.940897361324189,6.860778215328956,6.908596879632887,6.965929294112354,6.862094278689333,6.818910642330731,0
514,6.40327300805876,6.434104328054882,6.444718513991764,6.426640769289075,6.480590854210323,6.380547319671486,6.390326387522339,6.372111467405572,0
515,5.579217492746066,5.5413435026600215,5.534501788343729,5.588595885743375,5.538962124872808,5.539765297144977,5.631124095574822,5.498783785427614,0
516,4.4633944679868405,4.489539021007872,4.472367490428415,4.440218612951331,4.442779948024596,4.500260424473967,4.436051096073422,4.494868309907581,0
517,3.0330906762247882,3.1688426049612946,3.124214903311135,3.0969962441030336,3.0672806571962767,3.167294661775436,3.1118058332617036,3.1450462721786954,0
518,1.5819110623152832,1.6380721894986332,1.578439139058362,1.7359006308198386,1.6712270742197288,1.5578182293240102,1.6778558942377124,1.6937826327471435,0
519,0.1677174687030235,0.2523726703348614,0.124772060422142,0.19531721321446854,0.1153813763839533,0.1265441977006158,0.1237618135013045,0.1802154997462361,0
520,-1.157708296545132,-1.1799738497536765,-1.058868199246662,-1.1523023212099064,-1.1605839768927044,-1.1846595554480908,-1.2304411119613263,-1.2133795436052097,0
521,-2.1367054547026716,-2.2439599591258106,-2.2524583661322644,-2.2362980646391613,-2.0217760521794723,-2.1789201188284553,-2.3033073247152025,-2.201192908534141,0
522,-2.8175800691283825,-2.8380235296876477,-2.8180014818217702,-2.7626049422006167,-2.852541990820268,-2.8307657476883525,-2.794846641675774,-2.967657176560915,0
523,-2.988215585964104,-2.9303916453225836,-3.011918291032675,-2.988847847056099,-2.9969035117049967,-2.9568396839180124,-3.0018021177445355,-2.9860001499185347,0
524,-2.7913449114030024,-2.8703705706216023,-2.9102360498724136,-2.861156099326087,-2.8271511584830127,-2.7217765618454726,-2.9058453715716297,-2.8574455393511218,0
525,-2.3098081900998957,-2.3403973355415193,-2.3874819654589494,-2.2944460103665825,-2.3234498611007828,-2.4147762521036977,-2.300611261872863,-2.282353925641444,0
526,-1.6457128357358228,-1.558240994567793,-1.6189178220534388,-1.5093175396343872,-1.4973660122359964,-1.5341569133715827,-1.5715962881513574,-1.539317296551094,0
527,-0.7539194118937441,-0.75868379245671,-0.6778620552595137,-0.7213299759811543,-0.6981002463825042,-0.7697563324346186,-0.8450153202783973,-0.7770833391355495,0
528,0.06708713444497275,0.06254596504681452,0.11161778185214069,0.054262851908421825,0.03741647644814389,0.052471083371558994,0.1659071793236002,0.18473436449312092,0
529,0.855609550065795,0.8663736604806305,0.8670930361464358,0.9083936167577316,0.8017042561538223,0.9152906359367817,0.9077426111011688,0.8773211375750665,0
530,1.3662366302799223,1.3111863200306781,1.3830125747414352,1.3320366532947823,1.4006987956899484,1.4136283508707188,1.3446346522742758,1.3506672514100002,0
531,1.5445643243743332,1.437495545820337,1.5900379307603625,1.5843180840664013,1.6152762917374839,1.6694609090220798,1.5211531836229142,1.6105438825920007,0
532,1.437488965594964,1.5515341618216167,1.5577932738107483,1.6051380911792057,1.5101097878174523,1.5344457578953534,1.4920717962585717,1.593851804747377,0
533,1.3045393117189141,1.2837004569100758,1.2970493828770582,1.2766431015389426,1.2703765580010773,1.2644064230327094,1.2346437996897326,1.2866046885853821,0
534,0.9355699468821159,0.8377560141135914,0.9045065524179863,0.7902092419204443,0.9154034474961333,0.8737214644866771,0.8703099080986028,0.8694259666285741,0
535,0.41054082910938555,0.3926933367804579,0.3888015699400679,0.4983144699138063,0.42976340317351486,0.37877634996649073,0.46363164428569636,0.37779167086273757,0
536,-0.03841643733535404,-0.06314495331277709,0.011576220033532397,-0.010099337815941287,-0.06479847382050347,-0.02191551575744621,0.02650061717275029,-0.1013844635293829,0
537,-0.4520394471119031,-0.41367550936116093,-0.42788089338089885,-0.3757019112942541,-0.524503585370489,-0.4355334736247065,-0.3540542961382224,-0.37836915089167367,0
538,-0.6918909260090708,-0.6054420710213286,-0.7064016829188301,-0.7247079918598046,-0.7319797358299627,-0.6706926990334552,-0.7886255354817114,-0.6624117351373308,0
539,-0.7853939655944076,-0.9070143967874729,-0.757598189667765,-0.7370231601056673,-0.833177221111191,-0.737493610618932,-0.7309630941463613,-0.822662977089084,0
540,-0.7004971015228098,-0.679602300840918,-0.6908183605021203,-0.7939921142656836,-0.7933940980840369,-0.7839234417727062,-0.7619521917522615,-0.7412576271142528,0
541,-0.5657794928357989,-0.5979758490873093,-0.6191135958364258,-0.564990147480583,-0.5410543882565502,-0.6046415968861866,-0.5536900348622925,-0.6284967825343863,0
542,-0.43885116746289793,-0.3316420783299019,-0.3316479142414222,-0.37027027838625803,-0.3498028759056305,-0.22689303166532054,-0.3175139695389475,-0.3146176458076806,0
543,-0.18187359623319668,-0.1782182470300816,-0.087640969985362,-0.08867658707660166,-0.09604127206573929,-0.16510930017186776,-0.1312353226247715,-0.1106354633423579,0
544,0.07065137259257202,0.019753323449873933,0.14510965645909885,0.14090681595560764,0.08875811589486415,0.08398082614310798,0.07914025602081953,0.028590444699306994,0
545,0.23414952402154654,0.2710730455641801,0.2874909341182986,0.2670117397346655,0.28918749766451,0.20839714305813878,0.29496825750116956,0.22457608921825986,0
546,0.2665694001278923,0.3543594549571544,0.32352390478496906,0.32311275560894676,0.3882239134866411,0.25870071204028317,0.32538223022036267,0.2002225231871812,0
547,0.2656539178636196,0.371442929162095,0.32263120431281034,0.2755234293542935,0.2896456544613608,0.25598159011387606,0.31457011570171545,0.31995036742778504,0
548,0.310338142199002,0.35374923074477227,0.18808178726834313,0.3363942517699606,0.34309455978699765,0.2749217227894851,0.38281957857581866,0.31819235932285045,0
549,0.07490817663465613,0.19402944874644967,0.27658185506392,0.30527537934733057,0.21231083400746814,0.2729580151127254,0.20111424901842326,0.2544952658729904,0
550,0.1464840149045491,0.07170761770873126,0.10766673554618755,0.0876736115314949,0.14508509917627552,0.02162309094479449,0.05736713620067185,0.06745485682934656,0
551,0.033801240851217405,0.02177980752361736,0.03693122578576741,0.017454514402699656,-0.019617605323573557,-0.022352323885824,0.029905260257840963,0.11262583278870973,0
552,-0.011222194608960859,-0.07505429315839994,-0.08519602147048497,-0.030809525088356625,-0.10548958153132253,-0.022562588285005798,-0.08566096505110699,-0.1131235127353496,0
553,-0.10725732964436248,-0.02786690867727419,-0.05992011621850532,-0.13767688905537828,-0.10326208116143257,-0.1148123478887525,-0.08849683200380455,-0.11043140838808876,0
554,-0.11417195768193195,-0.07665189468818262,-0.09330197752599269,-0.07906570448368763,-0.1386416715295127,-0.045194263124406914,-0.15320548954833785,-0.16650963423366183,0
555,-0.19061465069868616,-0.12769645556302583,-0.03207438287379455,-0.07618163126039057,-0.15906465157955443,-0.0477447423635474,-0.10434252667836191,-0.07511051648594297,0
556,-0.09419405294699182,-0.12260436065320118,-0.013270852876547154,-0.00703263202892275,-0.060254285033133646,-0.1257756223971931,-0.10401709055347047,0.026259858279030435,0
557,-0.03647860900017408,-0.04138303929091978,-0.08874508606787171,0.04799663912554915,0.002229496915854952,-0.08998003449898784,-0.013622954672564129,-0.07230112455256489,0
558,-0.06488899838692655,0.020960190578512092,-0.027631117919131434,0.05819485243236687,-0.017766941331410227,-0.07581388649635193,0.02331057258571625,0.02815112666927613,0
559,0.10829818400103834,0.008642319107369026,0.020649909110436362,-0.033780627157063245,-0.02161463380478286,0.0929329449731907,0.06111851327181959,0.03846087632081985,0
560,0.1050366156845464,0.050417500413071664,0.043459272112489934,0.034823218741836484,0.06937044620991044,0.025280721322941502,0.11380811982801742,0.052217027362055086,0
561,0.12701424348435797,0.11023061491339282,-0.016470329337086656,0.07030927526429798,0.0019182051991205422,0.002318203189196382,0.020704473303098013,0.07687727981057305,0
562,0.06968102706042179,-0.032526995313062905,0.052662051389376616,-0.03198373941583694,-0.04012555080287119,-0.023791535243067923,0.06653307251998947,0.03785781067279704,0
563,-0.009414579524367559,0.03462019078126004,-0.04088261718824596,-0.017290385877346718,-0.0041839830379074225,-0.06802501899957526,0.007471278012546666,0.014714291674988517,0
564,-0.04608164357232081,-0.03838754063528191,-0.011797711132935738,0.0355740181817327,0.023997301435967153,0.0405873403626277,0.05754475502532831,0.024364524291556534,0
565,0.05566989762160543,0.01475877024893423,0.0004584836456343845,0.04839827004585736,0.04915678478645241,-0.04832868040425003,0.05609287501307802,-0.04130542242498301,0
566,-0.04279721428341486,-0.04614288452644752,0.05828829172630197,0.01061794580682358,-0.0785286189073389,0.055787770555086005,-0.020823834157742638,0.08521629569345114,0
567,-0.017124621025977633,0.050836156446509725,-0.05866385565821995,-0.07149432165880239,-0.021493120445927077,-0.0556283217702518,0.00017049327168009581,0.05487143988421388,0
568,-0.07584945069559904,-0.02731218798071332,-0.1272959111558234,0.004237193914377522,-0.017398570852073476,-0.04233949958563467,-0.038704949003677915,-0.022184771672187797,0
569,-0.08593219674146851,0.01356107553777603,0.06755499458186581,-0.005999547454069478,0.015567452783205066,0.048110429674434366,-0.09932332962075835,-0.035250482863893616,0
570,0.0014730094851270947,0.028734642928622177,0.0774312196263211,0.04891982538973634,-0.042280096194171155,0.049159893516739994,-0.05515513267998552,-0.02210081497356716,0
571,-0.1783776621273341,-0.019672430086839873,-0.01645451401810962,-0.03258889052601984,-0.0038168170314003443,-0.050009784911376275,0.0042033739488190405,-0.019511599879477485,0
572,0.07194291672557641,-0.10081439972925248,0.014993082675114809,-0.07729194316314564,-0.0819829484676125,0.007979296175892095,0.018604056270996264,0.09470656544268641,0
573,-0.09087337150949541,0.06020248148085362,-0.03493671365458928,0.004269465230172278,0.034949436069916254,-0.02508769254672468,0.04946138055117988,0.04732736947197023,0
574,-0.008718171104300267,0.07241991904855721,0.06307329464844369,-0.06959103895185378,-0.0602171173799247,0.05118394672397225,-0.030075839254860168,-0.04281419905012492,0
575,0.006228307911762571,-0.08566629069546379,0.08791289193408496,0.017560810154808724,0.05662703417393022,-0.026015170886097574,-0.09144932439208314,-0.12335241648568752,0
576,0.019563504534028164,-0.0856219825414402,0.018675089821963906,-0.021032786888960105,0.011379288280028443,0.11414195786527082,0.036206026528332255,0.02469459291072089,0
577,0.06577694332644758,-0.04775620784387119,-0.023312982092687395,-0.0021051394161372347,0.13248733526413004,-0.12219591357347215,0.06433644447637354,-0.016145751355466274,0
578,-0.026215786604476862,-0.011077769236542264,0.11706731123910695,-0.03590772995942344,0.035590180298908425,0.0041314398767524525,-0.03884516444658428,0.06932956726985413,0
579,0.031376586440866626,0.03599234856291038,-0.010221253731888012,-0.008024340492726718,0.028694042147125925,0.013394987734017288,-0.05125850053126078,0.0491064900574038,0
580,-0.01662758094793005,-0.09450752321549545,0.01739693087190336,0.026039794912550235,0.010561567126139626,0.029326455550956254,-0.009201324598103484,0.009433971111995678,0
581,0.006941681344091005,-0.10187801058927119,-0.045439304812283546,0.04126769262709774,0.040816401774060915,-0.05496012319336574,-0.025296851136747473,0.032954922644048174,0
582,-0.014765483977440916,0.039251326473972094,0.05632058683579605,-0.01360035446819902,-0.04104131799528717,-0.022908148558233133,0.002584607937902267,-0.009778330624123836,0
583,-0.03634043346132633,0.0727949937333496,-0.04157593760892287,0.020749199287342514,-0.06929591116420579,0.037241805926808806,0.05555483575244242,0.047975871578269595,0
584,0.004424126753327623,-0.006312154000349157,-0.07466490321668404,-0.02998354666804645,0.0023924909762189995,-0.03292804759287525,0.005714030732423782,-0.007960620801896327,0
585,-0.05444333872141891,0.011686017587775757,-0.038009193925475214,0.04542832389051489,-0.08602104955755821,-0.060637039126059,0.06263345761650659,0.0288779507030285,0
586,0.06086716659459761,0.041084396567355026,0.0016637025337016406,-0.005137614281025498,0.07523412269622352,0.022742316944853132,-0.05146682832438528,-0.0628665946122422,0
587,0.001966377515113306,0.045591899647522714,0.017518041510338374,0.06383799297651183,0.03462803660249345,-0.040804997580722376,-0.043975565258444774,-0.03521511202430921,0
588,-0.0009159306258912961,-0.041574056347173136,0.02144947684334512,-0.028966199245042665,-0.007609423320141287,0.02632069220716114,0.0076260780170536325,0.036882782774076486,0
589,0.0014072020320197716,0.022321577615388357,-0.02085818973908452,0.003651637131830715,-0.07089256271101461,-0.08696572965281336,-0.03661710410080907,0.018940147531264537,0
590,-0.014526299052205836,0.0066548123781400475,-0.09667257522153977,-0.004034653397673375,0.029249434511180516,0.07076997302942097,0.004208878922490623,-0.09284067191736613,0
591,-0.0001947999940830051,-0.04586218921451938,0.07749259243765712,-0.004605965475435153,0.02368069106990268,0.03536583995358336,-0.10210016756805687,-0.06433976468270626,0
592,-0.0663253441912377,0.05511146100907116,-0.042486756742516466,0.059580353802381775,0.07677978544642691,0.0040493529935858195,0.05550681758612043,0.0036171511767219187,0
593,0.05995969863535244,-0.05405592558722862,0.016577444080286965,-0.06467728396174122,0.09082120813334457,0.01148463678884165,0.0006887976181440882,0.02848436477181222,0
594,0.03832745316013062,-0.010125144302558224,-0.11831256369265705,-0.0017740305352527054,0.05350304103608052,-0.040480972399906875,-0.03087933881174705,-0.0768650870709688,0
595,0.05417658510602124,-0.016972469389465325,0.023972155423972647,0.0021221359156443366,0.007110426462811329,-0.028578292229971897,0.0037443717292268497,-0.053651462253009596,0
596,0.1165110426124113,-0.03808654354786528,-0.031567774004047026,0.032468476544433994,-0.027004660063504417,0.025117200325256175,0.04413231861417305,0.002221127528857187,0
597,0.008573796817630134,0.022614856952542152,-0.03761696546740995,0.066525626681785,-0.05015408647302103,0.045472143652226384,-0.04338248019116534,0.04490365355841592,0
598,-0.022336282149462858,-0.05289022379048058,-0.031881547726176664,-0.16836029205699068,-0.03424743479615658,-0.00010693780766981263,0.009236905029017603,0.12464675485533616,0
599,-0.02711086454973125,-0.030199876122159894,-0.06017381344688078,0.0067730893966579655,-0.01700457174615068,0.06347323938266115,0.06505489472611987,-0.036001218897153034,0
600,-0.004879508769261017,0.03576426137285962,0.009561434799958215,0.033679965053725266,-0.012499444843222013,0.01715861375375503,-0.035951567123524666,0.0069823807933487025,0
601,0.08533703844741158,0.019325530001063122,0.0926509986075069,0.034511330331340406,-0.07409724971454633,-0.05844619621966832,-0.12144770214312496,0.07842351202761504,0
602,-0.031421386701016435,0.07841837433153691,-0.027166861323266657,0.010959255952576965,0.002599292010065107,0.10312141936005804,-0.029951249448101805,-0.04127985764004822,0
603,0.0726894988350483,-0.05180255038662105,0.015796746608593124,0.01691446602991922,-0.011249394105134067,-0.04221597072001054,-0.11121690808938338,-0.0059247652512796406,0
604,-0.044101087263649696,0.04108158274022216,3.416350928239577e-05,0.03373584896200329,-0.08342430465012977,-0.023479985321263584,-0.01858415526169779,0.08355909972787492,0
605,-0.10171336833988148,0.05032140131590427,0.027842343176714985,0.02581494918686048,0.022331570598247964,0.028046816627014807,-0.09058165770930725,0.017279984915772578,0
606,0.033274102960065624,0.017359018194321202,-0.06207134536326906,-0.01321201834342637,0.014931095657773629,0.0708043208822671,0.03395371816037008,-0.02995033017047606,0
607,-0.0263207536954323,0.07203941841675772,-0.005196152121820372,0.15504396915323043,-0.03397976809912683,-0.04324704177539523,-0.048904607218356266,-0.014224693251742944,0
608,0.042925667938652386,0.09144323287575203,-0.048623925654699696,0.025531462887655572,-0.0300836235627516,-0.007821690699134189,0.015994641964885672,-0.0008887571458474001,0
609,-0.1111005706499915,-0.07606005298783962,0.0022249838905044404,-0.053279754375370005,0.047519573334810584,0.006169629096326115,0.017935207428260325,0.03949027473476694,0
610,-0.012537892661723596,0.03129411400424857,0.022032802546062477,-0.011879714423687572,0.07353177039026049,-0.007364583417847388,-0.0464372396655626,-0.06514728739138367,0
611,-0.025692267834202538,-0.03204917318302491,-0.027507443122246785,-0.005837950218761827,-0.057751021767400434,0.03080880247115901,0.024383803262672435,0.016684230948506698,0
612,-0.060400710465702764,-0.02001693797679207,-0.06206721165202317,-0.046820145700442475,-0.03618996739702742,0.015955231785043933,-0.013687665022268002,0.08829603457738795,0
613,-0.14122505752549736,0.015903846512009472,0.018145974436747987,-0.027107926258956926,-0.027691429617781132,-0.04549624319777656,-0.0035661472020847487,-0.054463752562444095,0
614,-0.013681148848957119,-0.10200193677288104,0.057601938866402136,0.059400455876513734,-0.03640870256117618,0.004239800755318008,0.11797991585311086,-0.01667375361287605,0
615,-0.002494485519553764,0.046374320874756104,-0.0539503063002625,-0.043524926841672,-0.07071020695321302,-0.0010578871043506563,0.05987059191618101,0.03198348432510288,0
616,-0.02964124262849764,-0.08299301511885028,0.04378224593292161,0.08055976948406618,0.005486502369886632,0.008996451267924772,-0.052709906077137436,-0.022811625206602945,0
617,0.029435397812141374,0.0025852293565678786,0.07984512267708671,-0.022405620571313952,-0.014758960937056642,-0.015254778793758687,-0.048721020329879364,-0.009468018593053358,0
618,0.05084890542582779,-0.05835205852246398,-0.06863392572557905,-0.025720542417712676,-0.026668482236791788,-0.0751662991402075,-0.0356593663155206,0.00851847831439946,0
619,-0.021819530000028696,0.004101448718750193,-0.023630594412831867,0.06140752032440613,-0.0086943492735947,-0.007113115236300453,0.05904685114444567,0.04569536548637325,0
620,-0.07396913093648304,0.002402662413456368,-0.0033988068652383643,-0.013502590034324118,-0.036014724281139096,0.016446238169222967,0.03789522322177994,0.029100444103058287,0
621,-0.08448251546165983,0.03346543519133695,-0.06530027683828012,0.08017911829557685,-0.07678850379679772,0.030978458817242448,0.052456491658409966,-0.14899508110755708,0
622,-0.029557637840561327,-0.01367603575986278,-0.03384408801943608,-0.014597321933942402,-0.0055323854266988905,0.021594452308289377,0.09280276232744487,-0.037309117622735734,0
623,0.07088516797174405,-0.005199546957419112,-0.08105212949781188,0.0147423478442022,0.004015442299907409,0.030436447752503606,-0.03246176544844247,0.05043029611354171,0
624,0.14985240613077058,0.1311300901986594,0.03265622679281424,0.0542411628292396,0.11305939499446503,0.027085392468752446,-0.019244413622409723,-0.021187433744884576,0
625,0.15668839192198059,0.20567717798603716,0.2070782127441788,0.16415136535594224,0.15710248734653162,0.15699120610781256,0.08547791894827064,0.07272675121869784,0
626,0.32910921889631195,0.3130440746735077,0.3041006370094267,0.3021883412062098,0.33266369746928415,0.3189919520642649,0.23354689015586833,0.35311497342927284,0
627,0.5417121477657681,0.5847446047811583,0.5338265048341629,0.5075642521687782,0.6324526005991772,0.4837111364971237,0.6219828791189373,0.5532792488222137,0
628,0.9454437427937297,0.8999425403590144,0.929500025064469,0.9573083313747965,0.9320635631923763,0.9615189150868861,0.832245037787566,0.8613591051208116,0
629,1.5183123779685488,1.3606954772943824,1.4482321653377845,1.3800032392639294,1.3772187353846188,1.4629422187392878,1.3432891917327903,1.4013023050895754,0
630,2.0499742309750553,1.9722496079486802,1.9541348091616186,1.909366677554889,1.9401088898579655,2.0116269225118604,1.9679999679924833,2.005373190807602,0
631,2.7053443822007623,2.69963203026418,2.71295490373039,2.7193015197463013,2.6991913437213757,2.761983534428316,2.764662095512368,2.6943675818154236,0
632,3.5095758900507845,3.613043132491167,3.5752798522792433,3.6618577196249498,3.6694933198526627,3.6314232415013152,3.5794374848578987,3.5676652961428856,0
633,4.481517515989657,4.379009805673582,4.473984310020697,4.422954716370479,4.473739582437571,4.378797475876747,4.45677150073059,4.471359033699195,0
634,5.242447326711869,5.311927085716978,5.279644893441895,5.2325468371995,5.183240564237195,5.31397035331438,5.281185321752981,5.269626855578268,0
635,5.947858764545549,6.005208631469095,5.895624423273801,5.9940343454272895,6.015165672746216,6.036823604041197,6.10321660692298,6.019800858470212,0
636,6.583249436074108,6.6089797178800715,6.697747114542933,6.607417904790285,6.614328684036976,6.659174898762823,6.544192192039133,6.570096825716651,0
637,6.904087226040169,6.943667615854736,6.9256409579754985,7.010143797902627,6.9474593746773365,6.839492818558355,7.033413586647701,6.987858373876779,0
638,7.0102630166199615,6.902158944229949,6.886906575121587,6.925164050082,6.888671975233254,7.018557270714278,6.888082306195514,6.986404214148229,0
639,6.505962682896614,6.53787660296726,6.476556281572121,6.56499267154152,6.491976715370699,6.54093176312473,6.589745210977761,6.524897242470351,0
640,5.721514216614874,5.715320894673642,5.717319413621608,5.674816411594443,5.697749506288889,5.690396967527197,5.717489896861397,5.75983137284656,0
641,4.571632550035563,4.639721508974114,4.4885634758816755,4.584645580025804,4.7039163112134705,4.645505636077782,4.631814090317348,4.590455565462442,0
642,3.305276658929179,3.3222983272461892,3.285693698213861,3.309836715330391,3.324350458431356,3.225973809237937,3.256634297648281,3.3559165593766442,0
643,1.8384022564702076,1.8289836260029662,1.8339701491494194,1.7524598833800098,1.7504105638954874,1.736595388007709,1.824023834027342,1.8926458738497511,0
644,0.3443167791354461,0.33989260047035164,0.31005936261959977,0.396951900000896,0.3043017320906914,0.4171828966256172,0.27559280914449924,0.3834539764845049,0
645,-0.895546229354314,-1.0514723519069407,-1.007412018460573,-1.025658639975317,-0.9751748611547056,-0.9758566597847631,-1.0294185304832684,-0.8815060994419051,0
646,-2.1386939002968877,-2.1280287363065318,-2.0884401942635433,-2.1249648521536253,-2.0683635511173133,-2.122820121392817,-2.1386310121483545,-2.034027899644772,0
647,-2.759593241282581,-2.781647334742331,-2.6928642574325887,-2.8401637226860954,-2.7772146411732956,-2.710182281788912,-2.7792241414779943,-2.7582965830126125,0
648,-3.002321257714432,-2.9942685311567128,-2.972735041936581,-3.0505432011497695,-2.9803419301715066,-3.0495685039619267,-3.0278934894754026,-3.1273192115865864,0
649,-2.8431349051863717,-2.8529460202287957,-2.9377854844680176,-2.9500126648000267,-2.8801004210838452,-2.8459279513591724,-2.807056332653163,-2.880671223086203,0
650,-2.4374913775009013,-2.329138049705236,-2.4027463548460593,-2.4354571887710468,-2.3346297901523627,-2.415157718095453,-2.4267414607122406,-2.3954099251692673,0
651,-1.7092152582163604,-1.819848283443262,-1.7136984096552403,-1.6042569246255125,-1.633751513409523,-1.7276997922770696,-1.7596542581336942,-1.7665549727385308,0
652,-0.8915202102169654,-0.8997178154246652,-0.9001507618400143,-0.8582408265986827,-0.8922357659349759,-0.7972351727268588,-0.931769073361728,-0.9030448352500736,0
653,0.05198128555433817,-0.0639243106079189,0.06004082762262614,-0.01161943261344357,0.04444271971049984,0.05159876634170019,-0.030979043334402455,0.01208155120438949,0
654,0.8049422220791431,0.7808950715426609,0.7899959649222338,0.8808363854315064,0.8340473026004197,0.8492699758282641,0.6925687789902611,0.7217602158503875,0
655,1.212549979891462,1.3497070997270602,1.298194836944487,1.3660978796441434,1.4033802547589558,1.2821631742948234,1.3574725185896377,1.2959852407836883,0
656,1.5423962752185798,1.4630330773801967,1.561271372780758,1.5089610749295959,1.600648929887714,1.6125978219272703,1.5909493457797295,1.5907753204891706,0
657,1.4880734724820102,1.564418562507208,1.537918341209241,1.5863436313505763,1.5719637413149876,1.5775732753033735,1.5743951913002283,1.4904763056840913,0
658,1.3854583384267456,1.3008981238753983,1.310969923465991,1.2862983527229779,1.3133041415642133,1.3242650278862156,1.2867856502784625,1.295148515864085,0
659,0.9298856383594529,0.9497602090950578,0.8595910998003649,0.9486128758623774,0.9596559511650088,0.9836812126535324,0.9085500113192002,0.9314741678261402,0
660,0.5440633633424814,0.4780122133542492,0.5912121242740176,0.5550483318868549,0.5827244333559011,0.5994324938486192,0.42703690784034454,0.4676261333327042,0
661,0.07792424724904248,-0.07760323326595868,0.0022610318838609013,0.030006026870186893,-0.04601767254494146,-0.0624829259670595,0.05776537137652485,0.05005903073523152,0
662,-0.31520952916477196,-0.3411826271662257,-0.36562974437970513,-0.33785190572168305,-0.45537011435287256,-0.3575427272716311,-0.47098045445062997,-0.34354313821122995,0
663,-0.6502258997949122,-0.7249873818982844,-0.6654842760830325,-0.6931084203734516,-0.7013329035900441,-0.6756455351563189,-0.6826852653543346,-0.5915265328284666,0
664,-0.7461416772766167,-0.7595436445707088,-0.8167986867846596,-0.7513235469242106,-0.6983993818093563,-0.7446688139456886,-0.8019048920544238,-0.8377565676521549,0
665,-0.6780493673270191,-0.7771402458589922,-0.6782755697823566,-0.7730171623961676,-0.825457899217461,-0.787330373145451,-0.7713261510861388,-0.8288312022233653,0
666,-0.5702114378428996,-0.4658440384858831,-0.5449434698591987,-0.6341312831314906,-0.6310851458965684,-0.49031113289805217,-0.7027401141995454,-0.5548884238862113,0
667,-0.40709898594367666,-0.41182804292170405,-0.38884782184072136,-0.3975408414748399,-0.426379687969902,-0.422974914616292,-0.34078819319508,-0.37225851240232466,0
668,-0.1646263758265835,-0.10738241359574127,-0.13242757143733078,-0.18242900507367144,-0.33365883940976826,-0.14454652137027063,-0.14377487456862217,-0.19790764474442457,0
669,0.030569195702031378,0.17027331725934527,0.014757604038367678,0.03257393292790644,0.05750886759493657,-0.01671814798016813,0.024495539291453306,-0.01668641444099419,0
670,0.1713092948018921,0.18613627855957715,0.15853589174700056,0.203451674784169,0.20561215572042454,0.16494530005146138,0.1495570394319925,0.17044614089309787,0
671,0.3456028743384058,0.295157366774354,0.4454999888728392,0.30484473164686043,0.18737373136009539,0.388446941574407,0.3164106857183491,0.34929045059152336,0
672,0.32021441637298126,0.3028267074984935,0.37804240294001157,0.37976044549203514,0.3453918886750235,0.39524023765020905,0.23275606741592522,0.339481137657516,0
673,0.30144986931462925,0.1856491313957171,0.26712100142750755,0.3404703263979849,0.26137155227351705,0.2892858125210466,0.3254164055792106,0.23923924926462983,0
674,0.2466263041872848,0.18968283067773292,0.1892992051691383,0.29207398026462084,0.21348238603577951,0.23518642090699268,0.21820094176882102,0.1903344355271406,0
675,0.13308501829255381,0.16814395235155516,0.10498075500334939,0.049273647716484965,0.05592413867754438,0.1119986359102837,0.05913646545294115,0.06407344728598768,0
676,-0.03750598700396461,-0.0971822289984704,0.09167640093892616,0.08205224522917492,-0.02900698822208623,-0.05034643272979258,-0.06646791225322908,0.00034710520264466527,0
677,0.024536185674177237,-0.03760397289916581,-0.1210138179784001,-0.05281552956379369,-0.15078107289134307,-0.01029458624337666,-0.056135221168448546,-0.11906815177633845,0
678,-0.03382777617058243,-0.10087252571415208,-0.10006519521611512,-0.10059509739219238,-0.09228411741222947,-0.15713855337205393,-0.08722723984916066,-0.17341611703343662,0
679,-0.07367730161076164,-0.1901380776232402,-0.020775119218925234,-0.16971926809833965,-0.12881614157370724,-0.06673125769334283,-0.07259971606845583,-0.1412631367329577,0
680,-0.0805304290131187,-0.15573144376201992,-0.05611346582770416,-0.14304846186987633,-0.09229376681876647,-0.156569945063293,-0.02479108567153536,-0.08276516180974959,0
681,-0.10727077157312354,-0.12565784549729186,-0.04311032979200755,-0.07293517964072768,-0.05522035828384077,-0.157824618261713,-0.14237321291239213,-0.0055729951395655924,0
682,-0.0920869566220765,-0.004235319049873627,-0.04257516247145427,-0.013161236395961777,0.004048076245013778,-0.05592785057447546,-0.07138302680950458,-0.06175073891248188,0
683,-0.020472396329170132,-0.0054486886157532385,0.1188764536579046,0.03511538700952234,-0.04655280026515908,0.023387039528573867,0.03494411586392733,-0.057592789729964206,0
684,0.03553305435705681,0.01489298897587803,0.01988486295066116,-0.008841582067518988,0.09069057636840311,-0.018083263254727512,0.011384102479789802,0.04168895553478353,0
685,0.0019965274430453865,0.1037554550641689,0.05201117539923732,-0.0448887896575625,0.05426972284856185,0.03114298731428604,-0.07200012585983137,0.0865986672638089,0
686,0.020850355197703792,0.06653294832621384,0.05291204646635253,0.01814454768159733,0.047266265142557384,0.04176748577464126,0.02913016618955104,0.09674931616231626,0
687,0.011501869431056782,0.05828330489614538,0.023719774321196783,-0.01853172751112496,0.009648662195307606,0.04312229967798743,0.036746982609600534,0.026563530889476248,0
688,-0.013710004337150281,-0.09154708497321307,0.02896725802527681,-0.008292579445778863,0.0296735490953985,-0.011225285032123628,0.05663161978956953,0.011310486525217546,0
689,-0.0853901407971964,-0.03436742574322123,-0.07142657841572575,-0.032289144413025786,0.047048610562619976,0.006815719667322217,-0.004745172778932039,-0.001866653308281091,0
690,0.11978748356094315,0.035428758167461986,0.057613119393263815,0.009583313082206227,0.04275009301089676,-0.005838376546498594,-0.05125672969793356,-0.06855263164693293,0
691,0.049103887085977675,0.011828449867734198,-0.09396243468201887,-0.0402002239856806,-0.02610041515724469,-0.01525925232139207,-0.09452120860131898,0.011538451659046675,0
692,-0.005472959253261684,0.029756040395949028,0.008995106967581682,0.10125162587494164,-0.04360456949772196,-0.01557721230568028,-0.05696204649929874,-0.020764275984560432,0
693,-0.033438884493165476,0.015694595631842598,0.02764342265709059,-0.08168126952340354,-0.09602164187613033,-0.04027824928927971,0.02359933171940414,-0.08069669306808853,0
694,-0.04854534853971124,-0.008967466550799049,-0.06357050624463097,0.020518726407533584,-0.05441646762167872,-0.08608611590078921,0.07352187637463128,0.03682045986932624,0
695,-0.09814116313086914,0.012490386893454417,-0.02812873569194858,0.0035923089675218723,0.02490409143517412,0.029054383877277188,-0.0023865543499807245,-0.013483007318760567,0
696,-0.02743343847410194,0.02845441036412543,-0.003829110104783134,-0.0037728114608498982,-0.03798508516295454,0.016757105776382154,0.046601132296815166,-0.00751623604496118,0
697,0.02474649533353564,-0.01448877357628355,-0.020675396594228134,-0.07736372861818958,-0.03196508413456309,0.025144240692719734,0.0916329855766421,-0.11950930099784704,0
698,-0.02435498144537473,0.08017898290132221,-0.03213836892247144,-0.003405441080083763,0.1016859613064387,-0.06224912621888658,0.029531052365633036,0.024139522694209926,0
699,-0.03529022463603621,0.03944651323368173,-0.010213758381079066,0.010188018931802658,-0.1370981185786539,-0.07337834919778578,0.013383312990888343,-0.0003207797935845221,0
700,-0.024489961671304707,-0.05685514342677509,-0.09197379896559077,-0.024803560675290246,0.009099725362181838,-0.0026440371976091475,-0.0062449460944923076,-0.11270703945060302,0
701,-0.012199769251582601,0.1041784196886251,0.05261035835172047,0.006717382265226938,0.01931730648413627,0.049378590468963195,-0.00729638680676299,-0.0034294666385121762,0
702,-0.003370391876310317,0.06959707637880756,-0.04747573810574937,0.04356756636174756,-0.11821612897043016,0.01085990641136445,0.004559334898859949,-0.019468436059956018,0
703,0.009203838627488718,0.007277770238091365,-0.015803619908987595,0.015245389950841948,-0.054178364240219976,-0.036967535735764855,0.0057956403758931095,0.10770952288519267,0
704,0.03035751331207346,-0.04232723031693732,0.03479435751026864,-0.0063583410408356265,0.11833420776163792,0.05992258387641336,-0.05397237850061227,-0.0629873858886849,0
705,-0.06973051758001053,-0.009929442242027797,-0.03220371047377447,-0.03009606470387975,-0.048521908475462505,-0.016374290231173302,0.06717627285066083,0.07238265988012861,0
706,-0.031326535943765825,-0.10424442827174185,-0.09812639015647052,0.05455512558978149,-0.06684227221697028,0.009337763789271486,-0.04797272869358362,0.10073052687122035,0
707,0.057753694098665195,0.0171482787777458,0.07934430417560386,0.07482635277148288,0.005603775751082427,-0.04545342042202087,-0.019258054747358106,-0.06287096907478668,0
708,0.010311245701092193,0.052402758033394864,-0.08436105089644348,0.011219965682376425,0.02905237507225247,0.06550730101172339,-0.0409091936128674,0.04870538992497298,0
709,0.048001910826265176,-0.048518093589156736,-0.03543309300427627,-0.04302744674851458,0.05378479982492651,0.02603881244214091,-0.060863903382758586,-0.032778970460555154,0
710,0.018383108928559416,-0.053399712867245194,-0.03374440579389862,0.020314143649353886,0.0458739344772943,0.047679857565999025,0.00824431572619554,-0.03652357408084573,0
711,0.014346848667193771,0.03145188913439604,-0.04688925394837738,-0.03461774366243498,0.025412171781859366,-0.04081656542805861,0.07613457295204853,0.02695800183494065,0
712,0.025980753963407474,0.06005454397334834,0.0037059788416747485,-0.024682774648467954,-0.0963841337326178,0.08304342724572983,-0.014220239606281531,-0.03295708966735681,0
713,0.0033653928220098196,-0.015472096041949228,0.0559466471159413,-0.04458074131638796,0.012688873262468375,-0.004712345207014073,0.0076526240649939115,-0.0576340357302735,0
714,-0.03259967808105309,-0.025973100440744783,-0.024387658449107362,0.07149633687372978,0.029839761923140827,-0.06472085707139687,-0.10070867928160189,-0.0639432488948396,0
715,0.07933256586266717,-0.0657143278377534,0.1281143881428215,0.013213999377388836,0.017438416647413805,0.07009795679816533,0.03132298779617232,-0.07322480922815981,0
