timestamp,value-0,value-1,value-2,value-3,is_anomaly
0,0.23144550386126966,0.29328759463482523,0.2898609251410654,0.3110216592792226,0
1,0.3771571959037168,0.41080103608658336,0.4559881261115572,0.41669952507573316,0
2,0.8993491066655885,0.8863305758311223,0.9209336451659579,0.8503073476324523,0
3,1.5190315001539545,1.6253825671886661,1.5441838003718455,1.66128533171537,0
4,2.4887499275524836,2.560049956479323,2.4755729023756996,2.44435928038876,0
5,3.47220226571236,3.494811423820641,3.4800147757876565,3.5244817592224607,0
6,4.655977684373743,4.5440153967529415,4.654196487388869,4.549393005150089,0
7,5.560298123582221,5.558337032131839,5.588253819389246,5.566098017570514,0
8,6.432913512991321,6.392379194751344,6.434381590677763,6.398223187972933,0
9,7.004275147833652,6.970486431551551,6.89164546683709,6.848767449566561,0
10,6.833828084413355,6.783269609942685,6.902826450434723,6.940064812181625,0
11,6.239249724189775,6.150219414533212,6.283318783605288,6.264405179963222,0
12,5.031546259262062,4.993697535105235,4.955311337339595,4.947972234273788,0
13,3.4110299639855115,3.3257082128976747,3.4096298502420845,3.480275276482308,0
14,1.6207213075260516,1.6256913164990283,1.6825300629301567,1.53765553646652,0
15,-0.2267838867523199,-0.19496894237187642,-0.16847126775538096,-0.21853300056071495,0
16,-1.8125320840602632,-1.7790995214044472,-1.6762769872183663,-1.8083400432121273,0
17,-2.673317425684917,-2.807178482554343,-2.6836905163347584,-2.7565201344428307,0
18,-3.10633270797982,-2.9394478805646203,-3.0036546426487627,-2.971359776585184,0
19,-2.756829512389493,-2.7950430888838627,-2.737767584589713,-2.639192291576055,0
20,-2.0040884561608965,-2.06205274955669,-2.0358040912721003,-1.9405830553160184,0
21,-1.1151052306498577,-1.0219441248824288,-0.9918978449342777,-0.988875903106707,0
22,0.14724771553838015,0.19003745109754758,0.1788018229609552,0.13164752084690423,0
23,0.989941771372415,1.0146395599878189,1.0307616774854234,1.027511238111896,0
24,1.4824729031358261,1.5223973879787738,1.5536968975462362,1.4660161869350008,0
25,1.5228980935430454,1.6006292769652106,1.5481394100011112,1.5145353688030456,0
26,1.2738121861133624,1.2522705019804714,1.3288331460151623,1.2778009305395568,0
27,0.804384884770277,0.7430796534810071,0.8373980789657481,0.762609625758656,0
28,0.18012433387634946,0.15882220115693782,0.19843942075039053,0.27433898207718166,0
29,-0.38943445253578407,-0.3307001350296451,-0.27736103256621447,-0.5301210184869116,0
30,-0.7250117595109158,-0.6771321497108853,-0.6721802463026689,-0.8106454762036936,0
31,-0.6882291597304879,-0.7446638417723491,-0.8637444981663447,-0.7293064323125547,0
32,-0.6883389050052371,-0.6679682366885539,-0.6993514621318513,-0.6494138285258031,0
33,-0.3919050375587606,-0.4615910283251218,-0.349363238470574,-0.522050799479168,0
34,-0.08934225417305292,-0.11776945441115695,-0.06268226091042575,-0.19101611503513938,0
35,0.1660404752239358,0.13928785666455426,0.09585298658935264,0.1103776230945827,0
36,0.257617068054214,0.2918334388433592,0.296528608803693,0.3224677379906214,0
37,0.2825094484103881,0.36959791490578514,0.30093835366859234,0.4503921149637221,0
38,0.1375376174194765,0.282012055291844,0.24048876968741478,0.29088685307241513,0
39,0.12690220121169288,0.1446687630959923,0.2717513694451721,0.1232054780568792,0
40,0.07112554177566768,0.12122471328073256,-0.013274241638631334,0.04191436462971657,0
41,0.028776456055792675,-0.0771406594744133,-0.044284495071831284,-0.06323165390511949,0
42,-0.05753410475063258,-0.06378108821418516,-0.1412296364404391,-0.19110414807503506,0
43,-0.1986826797902293,-0.0992738513528207,-0.2513140172598501,-0.027915856558997573,0
44,-0.07728939234249638,-0.06733297231286393,-0.04315762806909927,-0.009113366116518348,0
45,-0.13098223324437527,-0.06626939656483213,-0.037106940378969014,-0.04212039486003418,0
46,-0.025372812619239193,0.03335336012010083,-0.04615397459580256,0.04587941040887786,0
47,0.11725103435784688,0.012723274966237852,0.05847796631446236,0.07027387753679293,0
48,-0.05984309238544031,0.05216687402242741,0.02027119017088832,0.04626400751158796,0
49,0.007490971716479191,0.025349726620884167,0.08365068605989467,-0.007815205645140547,0
50,-0.020851988848018133,0.0223596198998786,0.08155317088474846,-0.09556387990727659,0
51,-0.06834269073564443,-0.009926222560787307,0.042032037109561375,0.13461776728078478,0
52,0.09542728155572618,0.04270380339973396,-0.010196141935266545,-0.03437515998818451,0
53,-0.12461481712471068,-0.020484275631800705,-0.08767309361512161,-0.07236686794698521,0
54,-0.0451234883580729,-0.005678319642151283,-0.06637914579904017,-0.011265778498248967,0
55,0.0038652159010962505,0.055696972987546924,-0.00922055659336387,-0.04453716968179571,0
56,-0.022457032316259125,-0.14937133050452261,-0.03170188675383044,0.06107946770109654,0
57,-0.03305393214749955,-0.008104011631197814,0.020287574136636125,-0.01872696532257308,0
58,0.03796747880639923,-0.005773932701301883,-0.06153423395300816,-0.025768496717058175,0
59,0.008418507677999341,-0.024494641472544938,-0.05980578372511629,0.048929436340738694,0
60,0.0013018398525898166,0.056872961095722145,-0.05891038012279676,-0.08449132525145911,0
61,-0.05713402318247771,-0.06670559540644787,-0.04793144053686696,-0.08037526967718514,0
62,-0.03522670563263364,0.039499007243252386,-0.03175068964741184,0.0008368142590273846,0
63,-0.05030283208612618,-0.11070429403702974,-0.007962674867551237,-0.029620754824829107,0
64,-0.09643287294397652,0.03147010909955153,-0.08462241792750133,-0.05778648213994896,0
65,-0.017487164854647776,-0.0029641048869953543,0.017670737374944973,0.03204817702025309,0
66,-0.014045417900416345,0.009046738108092313,-0.05354887429008094,0.09946981317772659,0
67,0.09752823363310816,-0.028915275616059288,-0.011303477037142342,-0.07312975989863432,0
68,0.03172546612545954,0.005462909252732096,-0.0511650385938868,-0.04520548073165809,0
69,0.0016508383446972646,-0.04485684340139702,-0.010053004768120955,-0.022954529325072616,0
70,-0.09172346545765456,-0.08154499029560805,-0.037402261813564194,-0.06896944409882871,0
71,0.024978266194662854,-0.04247068585004643,0.04243026065309579,0.008499487981919242,0
72,-0.012216830121172414,0.012922771988916034,0.02338438988301837,-0.008527309648304733,0
73,0.06238366861118143,0.01625813224123989,-0.03958982399210745,-0.08138372744164765,0
74,0.014670105822204897,-0.004223221702637177,-0.014468999666530901,-0.07168693670052209,0
75,-0.011177435648124321,0.017965926190129874,-0.034536364534505454,-0.031481629861072884,0
76,0.05835101004927916,0.01653399016255695,0.0023316332015988032,-0.05147843104802859,0
77,0.007275778849726883,0.039743388486793534,-0.020900680870016373,0.05553002897948611,0
78,0.039802133640274066,0.0841166280883753,0.03912680139175205,0.014271948032075975,0
79,-0.024255638032313672,-0.02316481732615542,-0.08618554301453522,-0.08039876110969306,0
80,0.03707322503478794,-0.04960322528307017,0.012244503152468268,-0.04180126609584903,0
81,0.07990746158586268,-0.05299508981411569,-0.018644832833539106,0.009896149039917158,0
82,0.020179038621340455,0.04051966152379038,-0.048977041464451365,0.014848521437394461,0
83,-0.05791544292036718,-0.018905442294457946,0.038890505797753744,-0.02783781834671688,0
84,-0.09590851197406887,-0.038108578507057296,-0.03763791507016284,-0.11088000412146652,0
85,0.0617516432627319,-0.008267521781190066,-0.06683082894866507,0.021317029117350866,0
86,-0.05074941322220917,0.08505609000920548,-0.045601790209563994,0.07499608216532014,0
87,-0.043467716949212906,0.020642181240610024,-0.06672647676226359,0.001648859220617165,0
88,0.03268575713892573,-0.09817027755567438,-0.0008295437191924938,-0.01710350382087553,0
89,0.062208709848079816,0.1525754484463495,-0.027205449674086037,0.03346710286927725,0
90,-0.010364632179397615,0.013119352815982274,0.05150781898929897,0.06850449229345155,0
91,0.004465063081609042,-0.0056820103908987235,-0.05921832752514287,-0.03449886472164343,0
92,-0.022907953804386396,-0.06069739664342554,-0.014622665597564116,0.04321210712710032,0
93,0.019054648080584095,-0.0094186274869176,-0.007679449324229867,0.047264722892224546,0
94,-0.07212800650721506,-0.0293256079169983,0.004914265583939971,-0.09366889474332653,0
95,0.07366157107161972,-0.03262073972329591,0.010507461783611373,-0.06002424084380308,0
96,0.0868390165666809,-0.0014470956684280007,0.011474404703610861,-0.01776175670155947,0
97,0.062228898759694014,-0.029220191998341815,-0.03340911790105623,0.021100043855101214,0
98,0.09900180256193998,-0.09085028425132333,0.07798793710551573,0.02359658853536522,0
99,0.06712990382591082,0.04960687323045419,0.07901076442081902,0.10578890940420105,0
100,0.2341653202792748,0.14457710166023208,0.20691469406768562,0.12490150643567642,0
101,0.5352416111717304,0.46379787074052414,0.441933167400762,0.405413063374528,0
102,0.8296456608570173,0.9081317885334659,0.8657140950776668,0.848603341836782,0
103,1.5872576724467176,1.4781806048191828,1.4192065660210451,1.4532054861971944,0
104,2.1823627236978025,2.2102082358959745,2.2279112241435066,2.335091559026706,0
105,3.239613571847663,3.222583270673583,3.2964241528491107,3.145825333805963,0
106,4.279000781513883,4.3077081086180975,4.269894674953457,4.276142956963818,0
107,5.351612301641434,5.357847781356032,5.361196787246369,5.373922671176834,0
108,6.272031393444918,6.261165935483251,6.240697841675646,6.195239060204173,0
109,6.858246198607474,6.835008983203726,6.870262426336093,6.870422674927376,0
110,7.032301799998577,6.982705259149781,6.9576743634053155,6.913917787646382,0
111,6.469955939176773,6.472121871382207,6.438237837908429,6.490000269467859,0
112,5.295698447462958,5.376549733038728,5.386493078907541,5.393559165069574,0
113,3.903307778563889,3.867015985548575,3.8617584900610815,3.768932529254671,0
114,2.0651881326243458,2.0872022461481308,2.0328655502082595,2.0718609421737066,0
115,0.20834401841124547,0.25500668239314983,0.1960369694405531,0.2276901821887552,0
116,-1.355889079765408,-1.374250531963109,-1.4154173289724574,-1.3737194428572241,0
117,-2.5215840236451275,-2.5171443907806386,-2.5864945031620357,-2.515140559915149,0
118,-2.9393442182425624,-3.0010388574885543,-3.0800404014013183,-2.960024531892252,0
119,-2.8585821928909088,-2.845949270392786,-2.7968395046611505,-2.863790468078826,0
120,-2.245494195445341,-2.1748367579712964,-2.1637394715640617,-2.17833345865394,0
121,-1.2474736795210006,-1.239137640884292,-1.1557477782001158,-1.2400145225051529,0
122,-0.148483154197538,-0.1403160375287958,-0.12279154772951976,-0.1252407395568966,0
123,0.8505013141383031,0.8346564947512595,0.909220106639692,0.9174965235061738,0
124,1.4150563965986536,1.465378579813953,1.3934463504925714,1.4256701587269613,0
125,1.5385904410877511,1.6254124725857921,1.6135434504306658,1.614999404441051,0
126,1.384917967385106,1.3902999032918688,1.3231064811613442,1.3396996654921622,0
127,0.923463746545957,0.9289093874710422,0.9088445711552363,0.9093736974362705,0
128,0.3421074212025937,0.36686883139676735,0.2952709871693258,0.27882232391085593,0
129,-0.28241911214103294,-0.27565044537454314,-0.2638223368167859,-0.13798029519437063,0
130,-0.6374763583719021,-0.5968177023108282,-0.6164771300917999,-0.6593025588030702,0
131,-0.7946418223154158,-0.7246055471004457,-0.7595985273063802,-0.7097703292560693,0
132,-0.8766190212535623,-0.7276217364003918,-0.7171445652655013,-0.6291786027843694,0
133,-0.4059326697133164,-0.4989400382230535,-0.48690512775246864,-0.5915082921306524,0
134,-0.1976111597995615,-0.18422538056316687,-0.18555269720411022,-0.23982828900380185,0
135,0.040804972351189156,0.0628420438933884,0.023395353801961685,0.10009788380806925,0
136,0.2525065135793717,0.23247331891795392,0.1366594634446259,0.2658496937659706,0
137,0.363028371933443,0.3031396432034542,0.27563963444301487,0.30868108495848035,0
138,0.25967512347791005,0.28697749926025806,0.23463407834118943,0.2958598998493723,0
139,0.19458443390030425,0.12279647462047447,0.11743238592713014,0.13906326959485943,0
140,0.0680730712549248,0.10897982535680262,0.1200097119111457,0.03444936777011024,0
141,-0.08226734935705338,0.02074200692990605,-0.008721021794825687,-0.036781568949945304,0
142,-0.15843072122212654,-0.1371583196420111,-0.07424545576232952,-0.03108265211140382,0
143,-0.10375550798299363,-0.08285192571075227,-0.11206671225134583,-0.11193497580584176,0
144,-0.024125646902537295,-0.1648816234746755,-0.11960294866279098,-0.13341923394731178,0
145,-0.10367896307549085,-0.1348887229537578,0.027525204299890166,-0.015528874906638485,0
146,-0.020216620437652325,0.008841655275643606,-0.039183390474545735,-0.10035145967747891,0
147,-0.0936766699560694,-0.05050410117708866,0.026149501356097803,0.04545106751157694,0
148,0.01535650990336951,0.02450536497291292,0.09669418420595204,0.10705138518290398,0
149,0.08152304013627697,0.04792002013309624,0.065394215848589,0.0048903774628197075,0
150,0.01359045053340317,0.0504026345736818,0.05383194577332518,-0.03525583622205968,0
151,0.01802643097602326,0.03779397665008615,0.03826598047948641,0.0663844540828091,0
152,0.02409266386529625,-0.10675320459462515,-0.038967033982160115,-0.034298756834255525,0
153,-0.05872813978575628,-0.013031460823862463,0.015688203508175978,0.07082277557454712,0
154,0.02835543785340017,0.013778373687967926,-0.040118763534036914,0.016673456323824182,0
155,-0.053610804641472574,-0.024024864100646047,0.021682589396783514,-0.04464712389412605,0
156,0.007450770430708116,-0.0021341799581738384,0.06349724291416142,0.031047999037559816,0
157,-0.04667908652449098,-0.041409281182711775,-0.018892076140575285,-0.001034617437252812,0
158,0.05989665172814982,0.09369768979191342,0.08905935733828112,0.02451007147179948,0
159,0.05404990987886816,-0.0182915756053537,0.0518771133060836,-0.041882817783718974,0
160,-0.06091203217528285,0.1307922136505775,0.026346385915755575,-0.010731115245201057,0
161,0.03716802037225834,0.0013267274491731266,-0.05408919341235586,0.02139112045742648,0
162,0.017181735528644614,-0.0011080624693275446,-0.02093808336629543,-0.059378280354496174,0
163,-0.06787396122215728,-0.06949848781593491,-0.05666603269295703,0.040623740019763516,0
164,0.034052451577023496,0.0023227977232486144,-0.012428238018413924,0.022961972719386714,0
165,-0.04081950450764564,0.07118543240424989,-0.04109139914814718,-0.056542552266226516,0
166,0.05792051264178694,-0.04227398051465114,-0.03520677404341379,0.011897614038767866,0
167,0.041955188639959964,-0.008445467661017735,-0.03932534935705503,0.07581288185187018,0
168,-0.031051699850492494,0.040353273762325614,0.07303037023551756,-0.07776355816526617,0
169,0.0014563016163148279,-0.01753542543712084,-0.01030530254476408,-0.079536846990567,0
170,-0.10497187639956497,0.01135841048852304,0.005477343835122899,0.013349863525061874,0
171,0.020700238374216386,-0.0859035029755433,0.0075080234049866345,-0.023047338436765125,0
172,-0.0572020094663231,0.01207465880120913,-0.04066396871511983,0.043468760274033784,0
173,0.010161506150523742,0.1320557806830418,0.030649078142875114,-0.06459448508899092,0
174,0.05662894007537983,0.01285713865093819,0.10183849718687638,-0.026777526217920476,0
175,0.04351903070228449,0.03674490434340187,-0.0065552585599601785,0.04291046229041434,0
176,0.031670324854733964,0.0033388141576681865,0.012287218307394904,0.028589255557533246,0
177,-0.009604592800543361,0.014319499966906884,-0.055697487858928973,-0.033249111779485245,0
178,0.029242339016829683,-0.0030262677624249322,-0.0292164617739706,-0.018055489261499393,0
179,0.019868884124006263,0.01165042243390685,-0.03043779356526373,-0.08628374918073682,0
180,0.06011997188579092,0.011182285101274758,-0.07166275987999775,0.029031806711662916,0
181,0.020989208250419843,0.004274233134446035,-0.024396391664042383,0.005283880191478445,0
182,-0.022947873937486714,0.08059162494675454,-0.0771032790037045,-0.016172470293990847,0
183,0.034365506812855,-0.010169191685047903,-0.03419512139785904,-0.03245346661618748,0
184,0.011442342965558893,0.03129557534101719,0.020181340217457027,-0.01896352325073509,0
185,0.06914844179430113,-0.03381665862829539,-0.051092893742104385,-0.09426655283028891,0
186,-0.0929319862909242,0.005376378503137813,0.04313359913273444,-0.05990009614075608,0
187,0.04839676589447142,-0.041694594080790175,0.048601014645247714,0.05985636638617722,0
188,0.0646326241070585,-0.006805333861268254,-0.06593016385718835,-0.012397848491438008,0
189,-0.07262318664008763,0.04234146212715021,0.0282693021173986,-0.07039985794353454,0
190,-0.034434768194993276,0.026808820712492666,0.030285175133034786,0.010923900778958743,0
191,-0.011439938012576038,0.01963590419214384,-0.022249172002937672,0.061307151794892475,0
192,-0.00374242131683198,0.014409445013300616,0.05913399400711301,0.0273243802823358,0
193,-0.04561019464207908,-0.07775600292910523,-0.0004528231747490971,-0.003841265010694666,0
194,-0.0008562646773100813,-0.08773058037479513,0.018183590556123317,-0.023956241848125406,0
195,-0.14229475945106218,0.14713578404893107,-0.10422055041895406,0.07705854259223757,0
196,-0.06455883733671096,-0.028825562203119923,-0.09727826322524073,0.026789918981991873,0
197,-0.02733178407695508,0.011777568964346737,0.17085554523329993,-0.05175395447438114,0
198,-0.06116211558038166,0.058700110408878514,0.04425919886489153,-0.0637732664339365,0
199,0.010246540714430784,0.08305737253637882,0.07385209263607305,0.050576653342131156,0
200,0.20654921376680332,0.18735231956734866,0.14057588634267743,0.20619824116880064,0
201,0.41357118983216345,0.476568916628108,0.4531202164540711,0.4852157380007418,0
202,0.746179478534014,0.8248495245969989,0.7659037426979266,0.8055764563787532,0
203,1.2768493485206747,1.3209079466855393,1.2640796890463608,1.2887971287087592,0
204,1.9773478906277326,2.0931822604074117,2.0613722160341745,2.067615370449399,0
205,2.974715210896315,3.0305634769661203,3.006062747114241,3.0296364607167705,0
206,4.080703003216438,3.927829351107592,4.107372944010144,4.053497752927735,0
207,5.13368030785451,5.095560129145412,5.1455949276282995,5.130582131609569,0
208,6.088092286825366,6.039023651065053,6.120687095290982,6.063952911190314,0
209,6.710940825497899,6.710772433104176,6.681711801441492,6.7911241530220074,0
210,7.03361723706033,6.91983805932883,7.005540258418105,7.042147885661091,0
211,6.585795657226396,6.6566824458836145,6.587698145373522,6.652020901895761,0
212,5.576955019241696,5.613786977080683,5.775901473668282,5.651521034562686,0
213,4.302926426132833,4.205977951293266,4.140407279114735,4.1509442162774075,0
214,2.501173311642041,2.5379843113841942,2.5625369207163713,2.4758055218679695,0
215,0.5970070346635237,0.7237181978134797,0.6542536365504633,0.6853411122826135,0
216,-1.070412489413348,-1.146235262100453,-1.067781828839573,-1.060200536080781,0
217,-2.425190439922307,-2.3286851055251145,-2.354755825793531,-2.3681356787051437,0
218,-2.9668883734029263,-2.9847290451490247,-2.8952109357948763,-2.8791284233097274,0
219,-2.9808385772498753,-2.969366158540561,-2.9841419440839383,-2.969129116801013,0
220,-2.3888373336633197,-2.380211099139945,-2.445913855139611,-2.4172816827221113,0
221,-1.3948238221509728,-1.4840968534158456,-1.5068828919496757,-1.462876094782319,0
222,-0.36368503913164,-0.4023719040306481,-0.3466241512315189,-0.47547921475486454,0
223,0.5944280645350812,0.6081859761399216,0.695361772586644,0.632943337214022,0
224,1.302831229329271,1.2339364746402128,1.3445661229961665,1.4307450473847065,0
225,1.5044874235692958,1.633560995390862,1.47908437830202,1.5201560763766933,0
226,1.3995237955741302,1.4532969729710319,1.4299342354411686,1.5026338198848952,0
227,1.000693513809181,1.0723615439899052,0.9842305736307,1.0718058616982893,0
228,0.568274403460372,0.4250758345051118,0.45391522410597573,0.43452441972237577,0
229,-0.1974464249879314,-0.0011096476607923428,-0.06519200718879622,-0.09579433699841237,0
230,-0.6157338435490282,-0.5942255602263578,-0.5667051660338186,-0.5808306649902156,0
231,-0.6994187092357657,-0.8120124772786675,-0.8218033360124041,-0.8518521461676537,0
232,-0.7412346786209041,-0.7612447750989032,-0.7892819260461272,-0.8066051203382841,0
233,-0.5713678260098558,-0.5036874090633273,-0.5405517986415702,-0.5419658920515992,0
234,-0.22385078072561493,-0.2366915657319783,-0.2680933935882665,-0.2644152046782016,0
235,-0.006909528142803755,0.015011030996659807,0.03563282258004597,0.07089938250463303,0
236,0.2494885265563599,0.26031010356481893,0.13247331966392942,0.16439374743538765,0
237,0.33299239311288686,0.355665401683527,0.2947685115182656,0.21340325154856266,0
238,0.37453186166070523,0.32121353306918105,0.2895835292880319,0.36490806728718755,0
239,0.18774406500648,0.2137361579964955,0.3007995185194129,0.21688047657633197,0
240,0.08642401031593325,0.11500378858811965,0.13032139577309187,0.11299351500502428,0
241,0.04294044119504859,0.03339205574157045,-0.053576678242081927,0.005684786657655717,0
242,0.00015296673167849995,-0.1438220894995233,-0.009598688761436935,-0.11625479371460534,0
243,-0.050586027717735446,-0.1547355316502018,-0.13262594200167008,-0.15730466583074254,0
244,-0.053333812360983855,-0.054398018493669265,-0.09146066239784295,-0.1283900352839092,0
245,-0.09584237167255603,-0.06454095471992487,-0.07355353408363802,-0.10162754864997653,0
246,0.056468378178790975,0.05947606960243949,-0.061491529507733726,-0.03724869470072459,0
247,0.09340466961879762,0.01728256101020126,-0.030729818627469048,0.0017457396567487852,0
248,-0.007650108431238003,0.06337094079187808,-0.027841668694825097,0.03722151278204014,0
249,-0.009424481669907121,0.01964015214061271,0.0032103659133663302,0.09433292892156574,0
250,0.09111470520230044,-0.027437970791494504,0.126220581967236,-0.011978914393972102,0
251,-0.057027540107283795,0.07199950295724518,0.006834368449698749,-0.04643751705079032,0
252,0.028338469409027046,0.02434102551204452,0.05257682878932888,-0.01110303668321038,0
253,-0.013704113219755907,0.012737111099993436,-0.0007511980648949753,0.035721622360033116,0
254,-0.014045260920992082,0.06232885812405492,0.012397546419852662,0.01846824259397323,0
255,-0.019455720694175276,-0.08255956660680383,0.06055012984061426,-0.00901193711893972,0
256,0.018579471735832416,0.010714435409381355,-0.027143959538272366,-0.015029624877924029,0
257,-0.015277091633014524,0.031586562746291645,-0.081514419516571,-0.11164665684121725,0
258,-0.04206166261877567,-0.03993460029112541,-0.007559850681208344,-0.027328146311178317,0
259,-0.058374908222448146,0.028151562630839514,-0.06468818253839839,-0.045812353955090236,0
260,0.029915192288355996,-0.0852578813816946,0.054375897989662775,-0.008242478444150814,0
261,0.003039902587358022,-0.057340776552640756,0.00520599411463725,-0.050753080148771536,0
262,-0.03539307607418278,-0.015154959014815431,-0.015956484695054098,0.01500311254115354,0
263,-0.025397037182826713,0.03414461239210323,0.06267296811276084,0.08387429227020653,0
264,0.0014410457124094931,-0.010319365061732803,-0.005175418792931196,0.022948023647921294,0
265,0.04332692884519273,0.08759547826807806,-0.040419146788711634,-0.03913019847363712,0
266,0.016717523097650882,0.0483954877528607,-0.015463794440476087,-0.01895307937303777,0
267,0.03502367709824878,0.04598647200070537,0.08779423401742131,-0.005433356229149702,0
268,0.0049328190330126,-0.017783887222106113,-0.034958238651038594,-0.07607245091873883,0
269,-0.01095402951917278,-0.022550515143322795,-0.05651392808575021,0.02036558679908893,0
270,-0.04089211482896334,0.019265715516911936,0.009728971708791534,0.05406331955124586,0
271,-0.038928648025740434,-0.013999790058720605,0.022469031564509516,-0.0364945290070792,0
272,0.002340483888257969,0.005134720408483455,-0.02502450457369215,5.599605147261632e-05,0
273,0.05836994372287988,0.05725396381749297,0.05036459835482885,0.02787973089711855,0
274,-0.05643322259489161,-0.04286546025927526,-0.08923002714108469,0.06504907969665207,0
275,0.03315006191185649,0.01644139500059817,-0.04165143152212884,0.041523409189375735,0
276,0.014720080081144315,-0.07156480643967567,0.04483363060840308,9.60362829086373e-05,0
277,-0.04449970951959072,0.009167863141690286,-0.048370684032503795,0.02892559308153055,0
278,-0.08405512326939224,-0.0234840054347918,-0.01344683377339017,-0.05760485485702865,0
279,0.04171734129331541,0.023835546616038074,-0.021128429292285388,0.04319150901356641,0
280,0.06295249816596343,0.0003882373064743115,0.01726631838209849,-0.02500042643504208,0
281,-0.07329294802639696,-0.0030577787307825475,-0.04059685489198778,-0.017983981885285917,0
282,-0.0696068811868812,0.024760272054977408,-0.014355979678313051,-0.04727653614222177,0
283,0.01293138372601292,0.04995647338263995,-0.06752048787868073,0.0016015559382501873,0
284,0.03156674175465541,0.0006271655093516701,0.002208670905179661,0.058361972614293454,0
285,0.028280751992617568,0.08730650207873802,-0.01480794494619654,0.013474511436700599,0
286,0.07178054465345436,-0.02652765114898251,-0.060941393641045116,0.0014376377398687009,0
287,-0.04948919455591626,0.03321953730685114,0.01682296093632992,-0.08889909672174746,0
288,-0.06573161765401679,0.011556302644778343,0.043429619860307585,0.022188988672359893,0
289,-0.037730188018971676,-0.04106913670997529,0.024478814422932767,-0.1582437913279689,0
290,0.007635795635122837,0.08418287654563052,0.0761295152842274,-0.03706980706338986,0
291,-0.008876442077398183,-0.013836853452922604,-0.048969645413164724,0.03512132085312589,0
292,0.022412965323083425,0.04885588772698284,0.038085542279662724,0.028396961986476232,0
293,-0.0370584550113351,-0.06537979626566018,0.02287591380208152,-0.036195580380988,0
294,-0.025758741135388088,-0.057098856630142095,-0.03517093360772807,0.038389938154171216,0
295,-0.021822110279481572,-0.02658177835357882,-0.03874797463403802,-0.1202424285266564,0
296,0.027504589768655024,0.004379325188364285,-0.00505379216599737,-0.09385250953967057,0
297,-0.016175779428063593,-0.009682612155888372,-0.052729940721833665,-0.0006723090259495147,0
298,0.041974854378321144,-0.027409735496056107,0.018368244635318134,0.03730911942407216,0
299,-0.0464414123849711,0.02652245354279085,0.04032228466296909,0.06877281763842066,0
300,0.005928228135893492,0.15254354705301423,0.1156545397129582,0.18917376927073684,1
301,0.011216864036321599,0.27784755447578147,0.3708668619546175,0.33868488670922026,1
302,-0.005754644536680353,0.6151040568785661,0.523500832774398,0.6521898567127795,1
303,-0.03487013344418049,1.1633362810925656,1.1491546000532737,1.1266248247797392,1
304,0.04558603316228607,1.7892827007537289,1.8691115014977875,1.8466984700272728,1
305,-0.09811969738757505,2.7371495778646215,2.7033558484776545,2.739766599313353,1
306,-0.16594033223976312,3.7964191976611215,3.8067631239660336,3.819417157849356,1
307,-0.07655942642329781,4.761334405794185,4.86764636829529,4.765568758311716,1
308,-0.08467783087217312,5.896362686076458,5.841569244233384,5.846259540636011,1
309,-0.09823870418125971,6.689255474967695,6.578804698303077,6.546300455550043,1
310,0.20968182592498547,7.027774989828466,7.027685786699383,6.992133886552426,1
311,0.3012296970711743,6.808304477833849,6.814224910122546,6.625414231479942,1
312,0.3892572681633257,5.938455351138265,5.934844804093945,6.035684593132689,1
313,0.29799547198333365,4.637993428560461,4.648563928648317,4.593383664254558,1
314,0.18125698475547414,2.992255546856452,2.9697438041671584,2.9046855491014076,1
315,0.029591842108004328,1.0959422937439771,1.159470785813617,1.1118067212173364,1
316,-0.32466796214431765,-0.6114329120590555,-0.6726921528167347,-0.6244219399938439,1
317,-0.6457220132028875,-2.152224468274205,-2.114825359150797,-2.1048238015232394,1
318,-0.7391202585246164,-2.907635839133981,-2.8695912924628564,-2.884555278135898,1
319,-0.8395631372712882,-2.9448512787531254,-3.0028191300165834,-3.0588207944017385,1
320,-0.49984956805340053,-2.6066915775604893,-2.5712587865763465,-2.489046288289242,1
321,0.05272691097663668,-1.688064471574414,-1.6549495173883944,-1.6042945838293998,1
322,0.590162338882367,-0.6059077737292077,-0.7174129521112199,-0.6546115309874407,1
323,1.1665002902250952,0.3781949336738111,0.44311641490468234,0.47372212131155633,1
324,1.4880266059056872,1.1809261490362057,1.1956048988054457,1.322039571382381,1
325,1.637246924662571,1.595060021729651,1.4964392959216095,1.510333375326627,1
326,1.2357012955217588,1.4306518450140913,1.4919164932392959,1.5656944388534233,1
327,0.3891417496166332,1.2123846410082162,1.1442820120455688,1.172550737596275,1
328,-0.7077825938118221,0.6243041404871246,0.6303525718416466,0.7043220134013928,1
329,-1.6850471003053682,0.07635147706367397,0.0627242052825512,0.010445705146614123,1
330,-2.56492681812172,-0.4991501835791011,-0.4515155512106115,-0.479576479437727,1
331,-3.0016863325006784,-0.7169856644228961,-0.7355901388999584,-0.8519107659123745,1
332,-2.868553506297062,-0.7648595425194671,-0.7187880072466879,-0.8318229410983686,1
333,-2.0730133433143947,-0.555535390205305,-0.6691782379867238,-0.6140381311430214,1
334,-0.7741595138408038,-0.28962869424689547,-0.38983607741085236,-0.32346687762240334,1
335,1.0543924152105386,-0.10047796914643368,-0.013077798241619927,-0.07887968521575302,1
336,2.9897261114492157,0.11733108464108657,0.07226078942470535,0.20506524695812614,1
337,4.654436932008993,0.28798432623885256,0.3192708135408685,0.27036014755714755,1
338,5.949706658773468,0.29785648045504526,0.37156573237206625,0.4257950428218458,1
339,6.607805946680854,0.19677314235654114,0.2680168514382729,0.17385548579052768,1
340,6.9596852742813695,0.18756291955530077,0.10430447200716206,0.1818680803992462,1
341,6.601422205374666,0.046212816573920026,-0.03328345861315555,0.047316073284619,1
342,5.883240775843107,-0.10515771178781663,-0.11052802893122425,-0.025723489516445083,1
343,4.826011271271423,-0.13644928453779526,-0.17016553885212807,-0.09635683707840266,1
344,3.8338040670253637,-0.13111248711419693,-0.03572677887835925,-0.1058466193665253,1
345,2.85761703432819,-0.14444520096493382,-0.10519555526394585,-0.10024579154075583,1
346,1.9326895158129256,-0.03233987429276908,-0.01456308709938198,-0.067708776369563,1
347,1.1615600101223675,-0.04924092886404863,-0.0004461417323204902,-0.022975204858734326,1
348,0.5806658897098693,0.034231190004216275,0.009641949733276017,0.018547650293916845,1
349,0.3162075037422992,0.02624967480018782,0.025200519384885586,0.009444363459066678,1
350,-0.01297393679690367,-0.0026841141606434166,0.013364837887503249,-0.014574404559571884,0
351,0.05259725384502478,-0.036477086612110105,0.07690335740035383,0.027088421524892325,0
352,0.005927690085645952,0.05653953468446383,-0.10238636018777784,0.057334230870012506,0
353,-0.05224766572678092,0.07761428935275742,-0.09516503120640672,0.009446736795894283,0
354,-0.03556362903262984,-0.05776664729004183,-6.130709995511626e-05,-0.028911890999121448,0
355,-0.04004765460587806,-0.04722001570147569,-0.05307542877057128,-0.02841366718465645,0
356,0.022268567264872703,-0.02344321694168116,-0.044394470027345624,-0.03165713165112287,0
357,-0.018085254770603885,0.16602088456273387,0.012295815101446504,0.016791022628725664,0
358,-0.006405726045585472,0.024399277693142332,0.0341540311700341,0.055345818493024834,0
359,-0.04495654169064737,-0.059426533820616106,0.06618670607470069,0.006503844910234296,0
360,-0.0030733640558086653,0.0574283754596019,0.003788638493367918,0.06832596263835587,0
361,0.033104157545659006,-0.033281077870164634,-0.007102527462610379,-0.018610242938898316,0
362,-0.09063108322369012,0.008211336229927733,-0.012989313591592572,0.09089720367860228,0
363,-0.032990585833003634,-0.048752919337730204,-0.0553248302907499,-0.04236452742559387,0
364,-0.06664740294374051,-0.10722413459713068,0.08169490798201742,0.000496873116738983,0
365,-0.01626956660841939,-0.018999044331376107,-0.03768082319518883,-0.05974407810518546,0
366,-0.049029989044112356,-0.03027450459622922,0.028344171425671333,-0.03629381056772319,0
367,-0.07091315877725628,-0.035202424631102805,-0.06586993535805184,-0.043631454842519936,0
368,-0.10011581695457608,-0.09060990818438876,0.02224718662946713,0.03910190666721433,0
369,0.02332120390063622,-0.02200391476511765,0.00027643346634559585,0.06306573385119126,0
370,0.06165465200087255,-0.020657885036076525,-0.045229277003371815,0.10268634176912882,0
371,-0.03995408322343662,0.0286050098043958,-0.017259050597563115,0.04257969698882731,0
372,-0.0016889184379093518,-0.020459810969450827,0.028888362516679228,-0.028024288238700554,0
373,-0.07299047298099555,-0.01816666333932401,-0.037353724961697726,-0.006560499062894635,0
374,-0.004553300570784903,0.01034397289704432,-0.0069026655292589185,0.032399950675147685,0
375,-0.030441037912340062,-0.02709877446015575,-0.0971372092483454,-0.07110165534189776,0
376,-0.07220144732866621,0.04458892927193283,-0.05637039189254318,0.002678039632928779,0
377,-0.07053450087424665,0.03354875168380743,0.028553624650570084,0.053516387341458214,0
378,5.012272484364449e-05,-0.03433855121708291,-0.028878045174278562,0.024344781143810845,0
379,0.02324045259244698,0.014151454562500687,0.015519541064866681,-0.03153935532124669,0
380,0.0021347327908444857,-0.10130849827496159,0.07791021801830053,-0.00457775826470597,0
381,-0.06325148404726372,-0.10037426454938263,-0.09293156552134024,0.08294608479525176,0
382,0.010596657373128145,0.06065189398891211,0.07504148995296316,0.0062417728219002775,0
383,-0.08382642931923172,0.06690613590360417,-0.0016279686283495033,0.02109850736875515,0
384,-0.007627235418109864,-0.010281595896158353,-0.032831786990789924,0.026038366535405328,0
385,-0.01918861852690942,0.04683266567058192,0.02356009126067208,-0.06272439144480411,0
386,0.0656259217948701,0.03526396644284607,-0.016269211187798897,0.047233479689640624,0
387,0.03897949061861022,0.035955955967295214,-0.009523859517335254,-0.09673660016737609,0
388,0.12201958731282277,-0.0271661749624827,-0.08346967158075169,-0.054692205464003316,0
389,-0.08301618177249244,-0.12883970511242382,0.011371084195286098,0.060214130329515905,0
390,-0.05263879888320498,-0.038268686051288796,0.062071317145146195,-0.01031996024879683,0
391,-0.010983051124906556,-0.0001748040174854937,0.08120347683226475,-0.044893269961244826,0
392,-0.04514756982509523,-0.07532390046804495,0.0991878360963889,0.06539251326420503,0
393,0.03045729122181971,0.04714023169658556,0.12582340744571555,-0.04759080584077758,0
394,-0.019580888630455838,0.013588279276454951,-0.019698493094948824,-0.00024015882795846196,0
395,0.006896545366777489,0.0698931204911485,0.08519916180318397,-0.030725399039035185,0
396,0.062085297258130064,-0.032679579630406144,-0.05569230558000914,-0.04481620995803951,0
397,-0.020033152413489907,-0.04725831436448137,0.03964072366687966,-0.013551618294124459,0
398,0.03964539343258654,-0.020346294573848272,0.07547894958403248,0.044950787722075565,0
399,0.04419039773213335,-0.015889181793825098,0.04727892555986513,-0.0766438503235135,0
400,0.058460056651708725,-0.018510996480627262,0.1841006087478955,0.18382701162899678,0
401,0.34273374837528414,0.22517233353522553,0.302874541249226,0.24887441281009404,0
402,0.6215286153030513,0.5508820126768652,0.4810115522308282,0.6791827805474046,0
403,0.9535134820159502,1.0518165682027718,1.0419963475513008,1.0214903423565946,0
404,1.6378147483816907,1.6894835556295096,1.6463103401963541,1.603653946037224,0
405,2.518190223539139,2.438297668435589,2.5975632995198783,2.5948523645036055,0
406,3.564431110823742,3.572364867096612,3.530177775231718,3.5791940677389014,0
407,4.608715260472623,4.687728712169566,4.638222887451232,4.621731601629978,0
408,5.751909990986352,5.596317360755033,5.654841913963345,5.599608706126343,0
409,6.48381399037982,6.491137137349145,6.483657399597015,6.424259469897879,0
410,6.957489868937585,6.912024427044419,6.862307867452004,6.907552849341297,0
411,6.897830963289643,6.900154967968542,6.82851787667569,6.804590583449866,0
412,6.073237861007363,6.176964583505016,6.153462198512625,6.13098379887902,0
413,4.919092051098616,4.915376514404278,4.988035914671856,4.994253799410938,0
414,3.310463509527724,3.3528585336677836,3.3281304623821946,3.288931133425049,0
415,1.5774102400141217,1.4591186827117753,1.4938261395379002,1.4934167110452532,0
416,-0.26952031841499274,-0.3926904816028219,-0.2957764536486824,-0.3271021493019613,0
417,-1.8234100284597434,-1.7955474091606458,-1.787630725323098,-1.7839329477879189,0
418,-2.6952513555683404,-2.7177630429636923,-2.80417831881061,-2.665769916338231,0
419,-3.055470518742492,-3.014122813576602,-3.03187523738358,-2.995025030760253,0
420,-2.6405845760547235,-2.758706342076839,-2.6133487812475384,-2.7012778349556523,0
421,-1.9427668329715815,-2.0109128073485665,-1.9292469161207542,-1.9567384041901394,0
422,-0.910058341970333,-0.9507986730599595,-0.9095299828523452,-0.9544138163367168,0
423,0.06822454115789116,0.1704944849549692,0.25383395258695385,0.1483227246221161,0
424,1.1558749346911132,1.0081417359428682,1.1211339297706613,1.0389586867506604,0
425,1.620888126411837,1.4484143325909697,1.5421928978907875,1.520229280924959,0
426,1.55578707257885,1.5263340329362494,1.5971426064293532,1.5141167729841833,0
427,1.3377542476995257,1.2067995111787857,1.2527887695985123,1.2699738837777814,0
428,0.7331974518719857,0.7090704345199234,0.7645603412780663,0.7955709359383082,0
429,0.20097352463887663,0.12495088473690716,0.15348453942721582,0.25939745706848666,0
430,-0.37957476424414993,-0.39307879072011387,-0.3232089877585016,-0.43025116930698826,0
431,-0.6674984356269901,-0.7036271987127678,-0.716476801896682,-0.6661244768189357,0
432,-0.8285598284894712,-0.7815327047237742,-0.774027014211137,-0.7236830655038083,0
433,-0.6158489346378871,-0.5976102741293863,-0.552891290384465,-0.6804382809840784,0
434,-0.38008489369955023,-0.407414519829799,-0.390173066573902,-0.3779688587395518,0
435,-0.16808509335987942,-0.10956901054073412,-0.1447912070016682,-0.15115279060906925,0
436,0.17361139857135177,0.20143609936161935,0.08949828273120525,0.14748856918093708,0
437,0.31998321608186864,0.3793217444287206,0.2962300723837977,0.291938751837695,0
438,0.32282156134503853,0.3502623852811983,0.27239373191313054,0.3898781345540092,0
439,0.19581175496273,0.25176919546099696,0.18827028271855117,0.28395350551288884,0
440,0.05766856797300379,0.17722212264167012,0.19613216985472137,0.22526492948951604,0
441,0.08619194225962291,0.04357252272538328,0.052203384178607946,0.015336982438310474,0
442,0.057476814071220295,-0.09413441280348304,0.014223872530958956,0.051506920855381055,0
443,-0.15144971882067948,-0.08566625609825201,-0.1137433720684182,-0.19048830913701165,0
444,-0.09116272824605702,-0.062234014070321655,-0.043659877836260574,-0.0948928121984657,0
445,-0.06148255950986961,-0.15774476282166,-0.019868541873368895,-0.08834355226823598,0
446,-0.028118207401154695,-0.10152492571994494,-0.09589187856779798,-0.05030396153924057,0
447,0.008655940717510083,-0.03570326195652263,-0.021107206769623972,-0.017098952128825933,0
448,0.00917905420589759,0.010506422222484645,-0.03250571262979293,0.028370848375665482,0
449,0.009946159519265276,0.08098595863563796,-0.0010286751430074945,0.03752980886911338,0
450,0.029995803127457123,0.0055217627051719065,-0.00977951634677882,0.039118274257016056,0
451,-0.021083420047534145,0.0502935416579628,0.13876624968540324,0.01554501186287872,0
452,-0.0036128829179859507,-0.02538425637030592,0.02636862125997296,0.11559720944000314,0
453,-0.0002491669880496485,-0.0216687684486548,0.0838144658322808,0.09080735942091922,0
454,-0.04543195805226303,-0.10333556943952575,0.11713506873129628,0.06353092153531659,0
455,-0.0048995478844624345,0.06239201951777629,-0.050441241172787414,-0.040737840648993856,0
456,-0.026619760429807987,-0.1300988567140104,0.11826174191075248,0.02603700848924616,0
457,0.07434369331175372,-0.019928880959024863,-0.07312876304648007,0.008435323125822108,0
458,0.04715689319444454,-0.0008552429288405099,-0.053029068947102964,0.04463052717188886,0
459,-0.014267520508940408,-0.06264546218608802,-0.012342010542250124,-0.0009476366764190009,0
460,0.007740334260011045,-0.09485964034074978,-0.10884606359958193,0.03144379786851652,0
461,-0.032054550184916174,0.04855805917289693,0.06571827665452806,0.018047885094568335,0
462,-0.007955737587133643,0.03438606041147218,0.0021121395971769514,-0.014547744215544028,0
463,0.028509067384602,0.040711464426432774,-0.008927299288779358,0.008699824726522035,0
464,0.035533215329231066,-0.026912188033465113,0.06665516870728454,-0.04075165688121644,0
465,-0.01654068526605341,-0.05338658361739419,-0.018010412735762732,0.06352336911857692,0
466,-0.021287431054734456,-0.05940214019093561,0.06399209390449898,0.04123248096294727,0
467,-0.0021829442684786872,0.04104123615490473,-0.0371789613744313,0.0034369099296284486,0
468,0.048952576829792864,-0.033119031640545325,0.0747514234682695,0.03528558546377808,0
469,0.006642358088132508,-0.027584301882076664,0.042122039042332846,-0.08428244003587765,0
470,0.0037470706026234055,0.010387198205944605,-0.07030802906696397,-0.03515678314848586,0
471,0.001222631680891392,-0.01670583737554142,-0.012222236763831149,0.06820071130848405,0
472,-0.0013926951510660757,0.015048888051395266,0.05417300618760085,-0.038691581779277395,0
473,0.02296072350439188,0.037349582192583206,0.07357297156628355,0.04638458037911465,0
474,-0.05860860848510371,0.09133469029526531,0.012336411297459477,0.0002930634131930759,0
475,0.09441296108414124,-0.08795018233090966,0.01223651076674573,0.005725452981319137,0
476,0.020958439287949025,-0.13041926134861548,-0.01639847057939079,0.0032379155872177055,0
477,-0.11115728149205167,-0.031115399454548845,-0.06508276091634826,-0.10999799041259482,0
478,-0.05147144189370543,-0.07673467972552049,-0.049942796854777094,-0.04398448913208398,0
479,0.0070876288615967864,0.001008743799319775,0.07764209778317173,-0.09160545310414445,0
480,0.058573377883113203,0.039919087517319686,0.01248024946885251,-0.031402479335272696,0
481,-0.07771085203159094,-0.05051789486658916,0.06720247888123064,-0.03305808350292885,0
482,-0.04211123294693234,0.06979640843711395,-0.07328442212653273,-0.09185560501559488,0
483,0.0017715573793764304,0.006612196017972009,0.03735221772451867,-0.12753208105393174,0
484,0.0029818963012420295,0.10193653828493796,-0.1325529353189273,0.09870373791304841,0
485,-0.0683391639690151,0.04560466186908055,0.015240999098850776,-0.0029427053942908503,0
486,0.05593814089939243,-0.07271214894766664,0.003722750895671674,-0.0391316316712475,0
487,0.08700600342178325,-0.07137877075324864,0.04860292138767472,-0.02655122469331554,0
488,0.08077492755810066,-0.03633739692529116,-0.04607377043466324,0.03570464760342554,0
489,0.026245843103662653,0.06156899101324882,0.041029453122363016,-0.01676104215555727,0
490,0.03743304090020699,0.005964476194374181,-0.04830041005091552,0.00215946956496408,0
491,-0.059172455418256414,-0.04250350191347194,0.01923560420231281,0.015811584365013405,0
492,0.08823892598202925,-0.033014189475126805,-0.020460628899870215,0.03730060135091873,0
493,-0.11158486739322805,-0.030136813952117224,-0.03260706495857752,0.06330650731143526,0
494,-0.030927041630731095,-0.002203417635230678,0.0004977372409039752,0.03431846126855852,0
495,-0.015982551568367816,-0.05227185497510522,-0.007543959475590341,0.041011830164220636,0
496,-0.07411775744114348,-0.040819108754802484,0.005759891740977436,0.02910188827803325,0
497,-0.0028347194146965305,-0.07441181828396792,0.004771983728019212,-0.0859148398765189,0
498,-0.026426690826092985,-0.03461650891839287,-0.036763344125593594,-0.009808190622353174,0
499,-0.023877617938513465,0.017011096379878667,0.05020181574023827,0.036641800777377546,0
500,0.06604456985743039,0.08696050262232899,0.07397201547836514,0.04813378432325069,0
501,0.3848539159687473,0.18861981893224544,0.20196291289722698,0.24695743920906438,0
502,0.4575414194330319,0.5270743603645601,0.5469314197002416,0.5076581773945179,0
503,0.9421961836263573,0.8646733497912495,1.0024559636257522,0.8982495920518954,0
504,1.5401651950153386,1.508090696319447,1.5782084203023599,1.4408617890362065,0
505,2.4601837305255865,2.3772486051032455,2.362940138780736,2.3295010524687783,0
506,3.276010264757646,3.247573184761549,3.3678682554215675,3.334683509307038,0
507,4.405673292370222,4.365226848962097,4.359169140612595,4.475595777764071,0
508,5.445131961594085,5.388158632434735,5.360069062493879,5.383426445273692,0
509,6.33043489564535,6.323281869655541,6.335907790368639,6.297532143723354,0
510,6.8491546236384675,6.898824170012265,6.81412101256535,6.856963502659792,0
511,7.002136216806408,7.009635045398362,6.914511275393479,6.976800449687704,0
512,6.312419469427909,6.334193516251499,6.352524451476566,6.423241580818778,0
513,5.271062506339467,5.2464275863336285,5.281193608750249,5.3777304402369674,0
514,3.6765107180079837,3.7987810507517885,3.7709553937002234,3.7121084768139747,0
515,1.9537835386387041,2.032294471559469,1.9933841292972847,1.9799744460203226,0
516,0.15205526565533892,0.1915129216452351,0.03633992107129054,0.13086568733854775,0
517,-1.4810475719894476,-1.5383415393744388,-1.5179059543636253,-1.4768863452701573,0
518,-2.5581213098284694,-2.578599792615547,-2.497468593259607,-2.5691089035765486,0
519,-3.0596682685445344,-3.0365091309995575,-3.048296103223941,-3.0348444324882173,0
520,-2.7820884123049567,-2.777506441385581,-2.7939433004145675,-2.885015971439851,0
521,-2.2104630297002665,-2.1656660694563783,-2.1019827698177997,-2.138341898874258,0
522,-1.1978195791946318,-1.1255064466222615,-1.1750882958843472,-1.1440756876837914,0
523,-0.12946519680587615,-0.041063599767798206,-0.06322616889933838,-0.11192408732003811,0
524,0.9098310095594262,0.8351065382321873,0.8783675582621091,0.9364819845316846,0
525,1.4703667229761537,1.4470964939391975,1.4334339937078984,1.4523011073273062,0
526,1.618116714245426,1.6810713978829128,1.5808258079312552,1.553103324057555,0
527,1.40875241154743,1.333179300458041,1.3427861339549878,1.3995752326915372,0
528,0.8589055978826484,0.8969723743249037,0.920495459038088,0.910685750505654,0
529,0.3077066571507407,0.2766818427133964,0.3097681371414529,0.3152466213437979,0
530,-0.2693444532370235,-0.2742544586915593,-0.31093632021763856,-0.1867430914196404,0
531,-0.7135626086446661,-0.7333071558697651,-0.6416069801040083,-0.722351654766325,0
532,-0.7573443846367177,-0.8814853982493299,-0.7219176823426247,-0.7698075428234712,0
533,-0.7336847622288355,-0.6586346242978272,-0.7338317027511563,-0.736218850939212,0
534,-0.4229004395697142,-0.43460897714318336,-0.5850717851152047,-0.4185580203717453,0
535,-0.21728593715480138,-0.20285989390178014,-0.22692086480488696,-0.2016976207777831,0
536,0.09500383070329957,0.08354785500693954,0.05361251402747698,0.0944316875367087,0
537,0.2461834989183673,0.2194075584783872,0.3011088566572816,0.1699926072016604,0
538,0.39548027026342863,0.4311994659360394,0.3985329858842722,0.2820969971795138,0
539,0.24348468777318796,0.31166461007780794,0.30324137490468206,0.25951653687999077,0
540,0.17027119658662088,0.17186140911539458,0.13992231303765112,0.12207950070708443,0
541,0.05568423742164565,0.048007780059230065,0.0506696174819408,0.10651356206591597,0
542,-0.03447987651006254,0.029110777997547993,0.08095301253035533,-0.055416209340816924,0
543,-0.17788270370866774,-0.06794253186078689,-0.13909604749037996,-0.02561189941899529,0
544,-0.13092051632265067,-0.048951727390477255,-0.05065923593155689,-0.20052285327712366,0
545,-0.11313263027008208,-0.15517749056305857,-0.15813126127933036,-0.07209683694902298,0
546,-0.09678107722312196,0.005041642190288173,-0.13849579074539548,-0.005550703281570604,0
547,-0.006511559852842425,-0.03527289939934103,-0.09608606357887906,-0.05736638804617657,0
548,-0.02032808601584734,0.029780649475632835,-0.03812571855627952,0.004555133576524465,0
549,-0.08779150079219672,-0.0006256503171968852,0.025011742581979333,-0.02955827241670808,0
550,0.1236693516072694,0.08445846259676947,0.007141085446987133,-0.06970466260206798,0
551,0.009567133692625315,0.048558145950527806,0.029474188606859263,-0.020596685122127367,0
552,0.08079103708592575,0.07876284681001436,0.03680251879596841,0.03436179116989187,0
553,0.06299347170582167,0.02309621850571772,-0.02045155405900888,0.040711946284666484,0
554,-0.037826700568534,0.016660924540204496,0.12368222064331988,-0.004266831983760817,0
555,-0.007108507224612401,0.016096118121031986,0.04254292286032566,0.0261016640794707,0
556,0.004426510042956095,-0.009878375666706615,-0.015652200932072174,-0.043252679820337966,0
557,0.13088722048946003,0.0018037188168606305,-0.10028677635943269,-0.027499930138826047,0
558,0.052875108724653626,-0.04528026154672368,0.0320782459320282,0.04114810390947822,0
559,0.019545071192525697,0.06119446445727328,0.005202311306457405,0.0071740198139875365,0
560,-0.027254320105913415,0.03239782215413862,-0.016955896843391344,-0.056748730513479784,0
561,0.03023012769918353,-0.06521243730567859,-0.08057119168845495,0.034715655827948846,0
562,-0.018457330811627065,-0.08155387324826446,-0.005567892449261884,-0.029149937278627962,0
563,0.009726425396801215,0.018247598024200416,0.05156172086640823,-0.01740051430849672,0
564,-0.020536863699358237,0.012897795022397383,0.008430347170719825,-0.048584976246086056,0
565,0.07302867913666909,-0.011378688600046257,-0.025801700453540223,0.039745985241660675,0
566,0.004078291355695561,-0.05688668701223038,-0.04427638989695894,-0.07551173566161148,0
567,0.06529584095599066,-0.03844917129967646,-0.08901868578034537,-0.011084835581760582,0
568,-0.0592351501905722,0.06962740579259953,0.09356059247176184,0.03398263433613757,0
569,-0.06487804896837725,-0.011559517992918916,0.037754139902773425,0.013913860507599869,0
570,-0.103459424074626,-0.037314601373323215,0.08274950453501642,0.1410046063047716,0
571,0.03399686556074327,0.04531935839828614,0.030644326690942303,-0.015033051597077235,0
572,-0.05350056398499069,0.03440363971022217,-0.03697066285824166,-0.057040024916469534,0
573,-0.014518808628201811,0.03622984023610811,0.005870729481347565,0.04649459398311791,0
574,-0.06035253251385366,0.09179708786054042,-0.0261208820478557,-0.0005611053519149693,0
575,0.01447336622158344,-0.03726885240722376,-0.06380425671780889,-0.04274455715957472,0
576,-0.0024958142850899597,0.02507032016149782,-0.053820736550679545,0.05251208391943942,0
577,0.0610714192769243,-0.0036266101461932413,0.03468810273743724,-0.02087191183565416,0
578,0.008267662080491477,0.008638388264750834,0.022802700360926676,-0.0441602897835429,0
579,-0.07657681154402565,-0.046523221334015694,-0.01502736838468337,-0.018896065716091266,0
580,-0.0505810133032561,-0.04330944100640097,-0.027453179886136873,0.07085569518890096,0
581,-0.016286732471170837,0.025868072562209753,-0.04050545825204983,0.04972685369543135,0
582,-0.05110398125798382,-0.03602098737421755,-0.010027147064459773,-0.008053009194109971,0
583,0.027765686987942836,0.04093404922635823,-0.031125251557276436,0.010970336590718468,0
584,-0.014785354284550446,0.034560809666867504,-0.004394379837872962,-0.0086657441984232,0
585,0.041773582090431076,0.05141263844659163,-0.04455222522840032,0.07410804278557048,0
586,-0.027823723409188015,0.03899745355585304,-0.0017925217007986258,0.053577007317178675,0
587,0.06008309757761408,0.0261272092862678,0.002764732205063741,-0.017326646006234642,0
588,0.02054214465552575,0.03825332194137744,-0.06878010654883354,0.018967884024102242,0
589,0.08810623331130431,0.04321099911761763,-0.08690463651667243,-0.03281654831907341,0
590,0.01852802491603892,-0.03602209630800748,0.03021971844975018,0.027903683292655752,0
591,0.0349287131567545,-0.0011941351870882431,-0.0012172981905740074,0.0769410002371126,0
592,-0.006497529959880293,0.069597481487189,-0.08433225582749938,0.035592843480128214,0
593,-0.028789084126809923,-0.010942594047096153,-0.1156465546125321,-0.01746202764463489,0
594,0.048142114688113274,0.015270679006441428,-0.05453807394040049,-0.010101762265955374,0
595,-0.010686772212008115,-0.05464679260594549,0.08067620403959364,-0.003803251639078133,0
596,0.00032170659778342145,0.015900056331805086,-0.10068778100621764,0.03723780479510038,0
597,-0.03310561039287013,0.026035009624394586,-0.031820309164416125,0.07426834004871964,0
598,-0.016393847246688797,-0.00527454783601778,-0.039311518573859866,0.0693234720727239,0
599,-0.00981242767970017,0.019096882704211362,0.02124786823637883,0.030561046206150144,0
600,0.0807140804723705,0.10237557704207176,0.03910254101273908,0.038685044729329446,0
601,0.17674904756543003,0.12078988311397046,0.22755661190846138,0.20989752197019365,0
602,0.4484587198544122,0.4213293350998478,0.4217392558853525,0.40904129167055103,0
603,0.8640640028411228,0.8129061960796191,0.6947993298023869,0.7526491109714892,0
604,1.358556151805714,1.273462893654569,1.3760379968347094,1.2957687500076873,0
605,2.0845536209082676,2.155722238734745,2.092246242287669,2.150664056383958,0
606,3.1039634163360748,3.113882628463112,2.9979220517513268,3.1115725300607355,0
607,4.266462633535458,4.120123061071436,4.177294424863325,4.0987439768236165,0
608,5.235458181577914,5.208299006478378,5.189351546056499,5.046636865195059,0
609,6.080849277712908,6.0906746500972,6.186441145079911,6.076854033266612,0
610,6.827406382123112,6.780818599284892,6.730565167577622,6.789238581657807,0
611,6.917655446139702,6.99891771117057,6.900037670795426,6.955102103300142,0
612,6.662324720477073,6.604199477654514,6.446056321524106,6.570486100325628,0
613,5.643435222466094,5.546694908805095,5.524002273010305,5.512765971209631,0
614,4.117369915958043,4.08903410295882,4.074888689328859,4.151819352708672,0
615,2.401167734596987,2.400024502182121,2.4405717310493604,2.3295492359297554,0
616,0.45575625632362426,0.5369027421682925,0.5879801818416529,0.5406126040332127,0
617,-1.1393028156875271,-1.100833651369308,-1.0912286573049328,-1.1741024302109386,0
618,-2.5102109137278608,-2.386455043659068,-2.3501132385338166,-2.4564990580044506,0
619,-2.9769573773776408,-2.9713042721949607,-2.94388579590946,-2.9437453278425627,0
620,-2.8900192052485454,-2.910496323891445,-2.9419991197312445,-2.907837348954009,0
621,-2.4261266233619887,-2.285493497161075,-2.3169325601818813,-2.3868030073715345,0
622,-1.4441666903241857,-1.3730383335251775,-1.5787046421580218,-1.4300414223930906,0
623,-0.28424037822170367,-0.3421996593566764,-0.4031125995160949,-0.3087659837082823,0
624,0.6585034329011903,0.6805079482004278,0.6802080194038734,0.6905603157909048,0
625,1.466915157473569,1.4078554683751652,1.302607227533322,1.3780568096546313,0
626,1.564199166819888,1.6503696149425067,1.5603183117487147,1.60225229675562,0
627,1.4397648907299463,1.5525698675683663,1.3865693573202111,1.4263051437954049,0
628,0.9955179583163799,1.0679038010416229,0.9865239460618074,1.1101809738741246,0
629,0.5198634099456418,0.5041456456718034,0.47925303861852425,0.4199611963968125,0
630,-0.13391497406112027,-0.11477752688330237,-0.13800884523783155,-0.1180406005174783,0
631,-0.6010338701013896,-0.4978730821157005,-0.6476450953043272,-0.4963583202867301,0
632,-0.7746091565862575,-0.7454446455786977,-0.7693928817376766,-0.6664318697174872,0
633,-0.6668446887636683,-0.7322883734766097,-0.7698899195812539,-0.6800663933141494,0
634,-0.5283222453559682,-0.46555856562734416,-0.5411744024229843,-0.41520866274367785,0
635,-0.3104267555081016,-0.285421271337861,-0.17287607602175165,-0.20730744734040457,0
636,0.08142037006321289,-0.029637791840319956,-0.04936271438509672,0.005769409056958665,0
637,0.25528140558806073,0.2324180198679084,0.20146685191339614,0.12816530526736122,0
638,0.23282727354289154,0.2909315655270044,0.3145719520702549,0.37546268768836116,0
639,0.40363605241473033,0.2684799774163695,0.3174706492687155,0.33011220920305084,0
640,0.25796478645092297,0.22427379854682358,0.2331765401999071,0.36427270406794876,0
641,0.05767652141284024,0.16329920161189793,0.11074117850014562,-0.011466927254643003,0
642,0.014606870191877726,-0.02898090043607185,0.007589080102308826,0.03709144053875259,0
643,-0.07527490735148964,-0.21179233448816584,-0.04292474139947062,-0.08505896475120368,0
644,-0.11437962142602477,-0.24977327417769818,-0.1713667663111636,-0.21189581022191337,0
645,-0.10323759146734894,-0.12334603288778653,-0.04517260831970116,-0.09947380577255321,0
646,-0.1453244677526782,-0.05140705352878047,-0.07753621216941901,-0.07245286452287378,0
647,0.03861712958514209,0.02967179434763284,-0.020674969751540106,-0.09231435318513243,0
648,0.05558043980692158,-0.06261851757615168,0.06693372654874861,0.06734764093796577,0
649,-0.06987039775496853,0.02187204044319238,0.08049787298472726,-0.004315510780822592,0
650,0.010310032769026783,0.07822208949370651,0.0747247234830806,-0.010870639954101119,0
651,-0.07397672865907186,0.03659553223211962,0.0018738190011634709,0.049024949337989655,0
652,-0.05420741765760433,-0.03312522919088064,0.14621104018028747,0.029908257360532924,0
653,-0.016132204947177528,-0.02073922943347587,-0.02814779300596302,-0.010410146152417553,0
654,0.05530947267401368,-0.04825822725489512,0.05378028975138483,0.10817173971260412,0
655,0.08669553998690172,-0.04846469559567004,-0.05668046659867957,0.0201366564148851,0
656,-0.03340028556604205,-0.06690672420990401,0.06752005930946792,0.08929908643152325,0
657,-0.018492880123443182,-0.015989056414317793,-0.03650497425721308,-0.01050364669169334,0
658,0.02861722402234709,-0.02387127839827898,0.07519520383330708,0.04319474191314669,0
659,0.02751629538974883,-0.09246455953622097,0.019399804461515943,-0.0804926196128317,0
660,-0.035778683489697545,-0.04628557779052964,-0.0382874165430773,0.11045391025268547,0
661,-0.011496659290899602,-0.012632435836723842,0.043850762299057405,0.020171916727742965,0
662,0.0033484371164007177,-0.09165466225600996,0.024999989156673893,0.055820664755647814,0
663,0.07126010719986794,-0.021084405567820565,0.011965386538229159,-0.09151544794102014,0
664,0.004803462187091201,-0.001290544327516214,-0.028668924933410764,0.0015876201819378377,0
665,0.009515384192842626,0.0797909809749298,-0.039271299463012214,0.027172470037009414,0
666,0.09128717547707214,0.07683613437695917,0.058150640022901615,0.040845961086349726,0
667,0.18593141749635,0.022538172741745802,-0.012850014412445059,0.06974221428344524,0
668,0.018914919963290415,-0.007119959016056903,0.0631083068861733,0.009868481157619116,0
669,0.005578106910036299,0.09262106476440138,-0.012736462214894143,-0.10882456811025529,0
670,0.022367894802731145,-0.11836596019896263,-0.046522329225399665,0.062056520950401685,0
671,-0.01274231196346293,0.06755103467906567,0.05867701837035669,0.00019406127402604777,0
672,-0.03193016551187024,0.05542063342379846,0.0062437551739128894,-0.02721622152450286,0
673,-0.06115695241961021,0.06322854062696544,-0.02034089902398166,-0.022219749435990272,0
674,0.018389273493425406,-0.004421832886059982,0.020463137035310938,-0.05971956720221237,0
675,-0.05063697304125074,-0.03579477589506108,-0.04570719938214834,0.0330425524067565,0
676,0.010008683317064533,-0.018332894118170486,0.05428897083667744,-0.07404606159319321,0
677,0.03265122122800743,-0.034050575956773244,0.03378854558154007,0.015159573196028824,0
678,-0.018678624959296942,0.010967246243228215,0.10174867028152447,-0.04776238623797703,0
679,-0.00439139890464065,0.01796301586919818,-0.02290268889130785,-0.0239167659979056,0
680,0.05940913709345072,-0.03200621077844372,-0.0237254518409234,0.020078238928269505,0
681,-0.04947029347766306,-0.04069519791602525,0.1493523124614027,0.02779861392873038,0
682,-0.08396868371969762,-0.03847092959378936,0.04150757019019445,-0.03088636215922904,0
683,0.08924078866860566,0.06785583965919721,-0.012680094438691744,0.030402964797607523,0
684,0.05899120211610924,-0.0634237337910267,-0.024590422810676527,0.005842699969882348,0
685,-0.045415590532735604,0.007255830344010115,-0.06016041292019688,-0.08889575269570738,0
686,0.0522053306411434,-0.044446776537845206,0.03535076372945264,-0.046439434064414795,0
687,-0.038094022678424905,0.12320466595694429,0.0485421315931476,0.040970498607732046,0
688,-0.0035282365684299283,0.049953786562283706,-0.04522892284654048,-0.010205583771943234,0
689,-0.04253910054816075,-0.024963205726086197,-0.03173865169523054,0.02538599581380616,0
690,0.03013965823681217,-0.01454163000915192,-0.0412646389947268,-0.06259790092421187,0
691,0.03048026359190679,-0.0020415786664942258,0.0029486279100684643,-0.015315819991764726,0
692,0.06633865348739855,0.1450044670029876,-0.09753980454519112,0.022342054801602736,0
693,-0.036367692383110474,-0.011921280865135686,0.09518254431496406,0.07433140620732998,0
694,0.045781704259156696,0.05533962621676412,0.031832903607153545,-0.007687539474750458,0
695,-0.03109656917541831,0.044274870233164496,-0.0002530749514638691,0.04121573182269019,0
696,0.030884209525387184,-0.02411438467739559,0.016463718744737607,0.009139775544992084,0
697,-0.013565772588614598,0.09778197653860442,0.0028075069421912026,0.011211084281989837,0
698,-0.03788395698044092,-0.002444428373241564,-0.03796802936823659,0.048392551496456944,0
699,0.045990547302415447,0.016338107538969374,-0.0078888897701142,-0.06183128657685639,0
700,0.030908217188256135,0.015555900740835793,0.1004750701004206,0.016669283333575716,0
701,0.12473607677266339,0.17204401292939522,0.2802525189729362,0.13409264916331273,0
702,0.33368175028949487,0.2980322869200095,0.38565883865763195,0.30066454657590413,0
703,0.7057425498784203,0.7594430206502546,0.6627191907183423,0.5726326647426557,0
704,1.203425159861825,1.2026454595976104,1.1250554575999512,1.1438856182051889,0
705,1.8517456287166156,1.950373216232635,1.916386383479734,1.85750758545523,0
706,2.8088255346499453,2.781268430082867,2.7942051297267363,2.804072249148466,0
707,3.836681453447248,3.8886291879257304,3.9062715671097803,3.8691703878259043,0
708,4.9551573216904865,4.875715706974436,5.067505696022839,4.904233354612039,0
709,6.012649550942281,5.933150264345163,5.887743057685503,5.8660390524334245,0
710,6.69063705459865,6.68879064992298,6.666127361834471,6.6115489772821965,0
711,7.082030464240254,7.0356016867514795,6.893447276328634,7.041832352176756,0
712,6.656633212229812,6.767658684613003,6.806947117068168,6.809898306480401,0
713,5.934100108056045,5.899865381373766,5.943501848237847,5.80442629595631,0
714,4.45450119034725,4.490150805756464,4.500768919966161,4.462239833896541,0
715,2.7951526790242265,2.795851920241328,2.848197317055185,2.828470048522135,0
716,0.9737791200235548,0.9642236072884047,1.0327466598574369,1.036239225053912,0
717,-0.7694947460360618,-0.7370464622862763,-0.8413884327651078,-0.7561971846427915,0
718,-2.234342749171144,-2.173741808966506,-2.125882029107599,-2.145239749507146,0
719,-2.908225021433305,-2.837834496821051,-2.84226679295639,-2.874561570091454,0
720,-2.972654187716098,-2.8843102777199414,-2.9510294565489854,-2.95807869797034,0
721,-2.5598730258569087,-2.492957193925698,-2.518022692169813,-2.4653683131763082,0
722,-1.6390391647675655,-1.6123031267131263,-1.6595225402768632,-1.7157403141661807,0
723,-0.7024103887665599,-0.6526506250018492,-0.6116155070958023,-0.5658599235136041,0
724,0.45579007319986686,0.4942947647419859,0.46889931007967706,0.46399437608575167,0
725,1.410827632486218,1.2920733228357288,1.2253896027889268,1.244787144258835,0
726,1.550277480581526,1.6047590433826695,1.5588218168775014,1.5403667298798194,0
727,1.4659358192667673,1.5331564480638602,1.4100779522784972,1.4929115287163446,0
728,1.0753067213525302,1.0968980812897458,1.0332260721091442,1.2399929380772823,0
729,0.6141198538314796,0.5774317663801625,0.6029292832016313,0.6206679391362399,0
730,0.015160843744784915,-0.025769500031033253,-0.08007698301959848,0.042165336296348166,0
731,-0.4922923974733121,-0.5155060074464402,-0.47698438763743195,-0.4572523089766646,0
732,-0.7347040061992823,-0.8161541001481287,-0.8178068992797267,-0.7223018939801835,0
733,-0.7558142212885762,-0.7897526500486992,-0.7339090211681034,-0.7089301643038183,0
734,-0.601716638588986,-0.6398962465875574,-0.574792946232674,-0.6695677964564812,0
735,-0.29736684442410605,-0.37613088066181144,-0.27164009107597237,-0.28876211979323635,0
736,-0.019965348691054048,-0.12287974789346134,-0.0005564276074069355,-0.04959083162613526,0
737,0.16539440057610752,0.11338672578813863,0.24703786269490324,0.15534523074757353,0
738,0.2889355929132149,0.2600805992610896,0.2485932687829792,0.28197758773640397,0
739,0.28581096262518296,0.32932585916393015,0.34935050934764117,0.3528020184890181,0
740,0.2617767042748915,0.24384387827016835,0.2584628804084674,0.24224480582853114,0
741,0.1412011062037329,0.020307508433525925,0.16066111817811196,0.17277072233991952,0
742,0.016105161798496533,-0.027906646110744875,0.02331937435078114,-0.02282228380047802,0
743,-0.11116749419389349,-0.06075077440199465,-0.04993150197346787,-0.04820133510900729,0
744,-0.18007449353098587,-0.12400435489796488,-0.10097919898645205,-0.15689184787682864,0
745,-0.06667028283204267,-0.08870070275716996,-0.16389667844258365,-0.13341347537093612,0
746,-0.03919266995505947,-0.11522286239273222,-0.19912511865338914,-0.17357221925066763,0
747,-0.04888713062650115,-0.008955978520595008,0.00951506528729991,-0.09940137914443685,0
748,-0.042824819574962876,-0.044596706649896414,0.024165059683982366,0.029088286016606197,0
749,-0.038038485514993656,0.02117457526167961,0.08661783532106283,0.04087441495672578,0
750,-0.003553833565970381,0.024689140835455706,0.08782807122878859,-0.02703318238992531,0
751,0.06747973342566449,-0.0053340210230505905,0.07077393749286172,0.004775817440474277,0
752,0.08711642854513148,0.005208416564087352,0.04253011490310234,-0.00585911745643794,0
753,0.07691293046195605,-0.06486137460588952,0.04855498625918719,-0.02092816916248047,0
754,0.005195913302408924,0.014266351857348886,0.05424788360784495,-0.05110328735311189,0
755,0.034549273438410674,0.04350416688756542,-0.07508795563685586,-0.03494427617540008,0
756,-0.04456509984389749,-0.007724165625019272,0.041810476851723566,-0.01613785846709016,0
757,-0.08578740337228069,0.03894685177379273,-0.0189103993470766,0.052230314014479806,0
758,0.09062239753690957,0.05008142162617158,0.05593106591258025,-0.02224076140783274,0
759,0.014586746910568283,-0.02166113304279014,-0.0036975906612323173,-0.006225620199617206,0
760,-0.017947254440890018,-0.06675034221903195,0.009710785274142097,-0.04986954857457735,0
761,0.062166709032699434,0.034249347833545496,0.03438338355490503,0.09471252134376562,0
762,-0.03441684598534516,-0.025273940597404947,0.05207226699547642,-0.09586382030324123,0
763,0.0792564916381964,0.09283605801090945,-0.013036786759885373,-0.028960998273646517,0
764,-0.015938270367881778,0.006988359276217683,-0.04258609095653133,-0.01867795438469517,0
765,-0.008410726659543523,0.06108217482346648,-0.05481927953576413,0.05176066722458545,0
766,0.12171735385967736,0.03063798964534134,0.0736209799860618,-0.04872759470288713,0
767,-0.06290567542137138,-0.02720340056008906,0.017787369888158537,-0.041975981321611934,0
768,-0.018624273556950482,-0.0366695555889246,-0.027546951093326326,-0.0006545750424240517,0
769,-0.07644267092578096,-0.019125270927543278,-0.0385003681979785,0.06296348750619904,0
770,-0.00037202075742887383,0.023591901980174433,-0.011868660707496837,-0.02706560021021742,0
771,0.011861335948627805,0.005249710049953075,0.017068318982512407,0.005204320635851555,0
772,-0.08741736344061465,0.07085694142095218,-0.05614043037178924,0.0022118282678473948,0
773,0.03559020392734226,0.005945978439825043,0.03608968523193284,0.01584231077320583,0
774,0.03090369400630392,-0.04363402514463722,-0.03989365231823325,0.0045518960948269386,0
775,0.00347977316414848,-0.04411655023301845,0.09252444848304188,0.03331356877600979,0
776,0.024857907743464733,-0.05114224468045899,-0.017764169649132102,0.03477898113537381,0
777,0.03551632296994122,0.06821911077919902,-0.003303080989386284,-0.024877924760483474,0
778,-0.012912917726770692,-0.012054248843960462,0.049282450700910335,-0.06741967388181973,0
779,0.026193848976104925,0.05299318437060835,-0.028820179952366843,-0.07291803578101402,0
780,0.016986724455571273,0.08727003331953956,0.023779715460006835,0.009866308086333774,0
781,0.015135418733033545,-0.11279071162484496,0.09636121594522598,0.05082002965444315,0
782,0.03398462438637276,0.021201878663700092,-0.018427047730033463,-0.06526830759808212,0
783,-0.041328836518875256,-0.03214761613887181,0.030603902340157828,0.022864119331395254,0
784,0.0032627697439374316,-0.038370618058552575,0.05288248143030659,-0.018253523418832032,0
785,0.00014659244794818638,-0.022720437274525624,-0.11805974311529897,-0.00047653425150913543,0
786,-0.10901727841264927,0.12489516699923141,-0.06340160511193776,-0.03786579276502129,0
787,0.06870934309506849,-0.0823204598318999,-0.02103031773130249,-0.011138133109578782,0
788,0.006813886432066993,0.00998863808108615,0.062496741961382184,0.006847459510099733,0
789,-0.004047628757469656,0.0028470841879211445,0.024433849732350174,0.01710287471278283,0
790,-0.004014302873679189,-0.028016103810648393,-0.05175647008431829,-0.021120084928466017,0
791,-0.023454687763697704,0.04953662759475831,-0.0034989361769543603,-0.013280791606968954,0
792,0.031820688276600076,-0.02592147945653363,-0.012894478560967081,0.07044318235263722,0
793,0.08221043647218157,-0.12823033209184168,-0.0745157560678644,0.02772808917823633,0
794,0.06274889381116713,-0.07086774788197837,0.02502326366411084,0.03373979476875158,0
795,0.02837330064097222,-0.009246125388834153,-0.000807998972412675,-0.03547809667204238,0
796,-0.04941884903957326,0.019397907107425852,0.031942438804564856,-0.0595580106701809,0
797,-0.025400910714144718,-0.016780863056502004,-0.12269107716190439,-0.019236011801031426,0
798,-0.004191553234434759,0.02751459882194591,0.015813184157329997,0.020348582023464616,0
799,-0.08126103236579177,-0.018561868573440374,-0.018029702268166248,-0.04740580429742842,0
800,0.007597587909839769,0.07718426296983422,0.07378314023654595,0.055962210470394645,0
801,0.10301150184067556,0.11594893278087043,0.13024013030781417,0.12246776523078601,0
802,0.3350069339051703,0.29661011090343575,0.22437845017849037,0.2461395337985619,0
803,0.521754103582816,0.5049718252820822,0.6514380167212863,0.5954139749440601,0
804,1.064882297064557,1.063085837432025,1.0695127576231982,0.9664649561270612,0
805,1.730408815056184,1.714184553229098,1.685433292005396,1.5936421338185616,0
806,2.546239145202012,2.61334162856093,2.664865555554866,2.5068062609840855,0
807,3.648099803316918,3.6967375375830347,3.556141568173432,3.6202764762432142,0
808,4.703670847534924,4.765124530875701,4.759995019109279,4.620809041406298,0
809,5.681777972661328,5.733764612442991,5.635432895273384,5.690517469928071,0
810,6.583662047234486,6.560510930857497,6.595574727777565,6.508800741187165,0
811,6.931913182458247,6.905307300742416,6.919480912432765,6.901971084157156,0
812,6.8141910258554494,6.870322880182711,6.867616892761298,6.75768432268682,0
813,6.077390497707179,6.148400451186517,6.089170089259134,6.105393538078786,0
814,4.945859119323026,4.745379769370573,4.769074433371409,4.892917250593003,0
815,3.20756461250598,3.284269136182822,3.2174218479489656,3.2721763636605754,0
816,1.4499974063608845,1.418650833231727,1.3690157238090748,1.396059986792733,0
817,-0.3233052713705141,-0.3669550703865478,-0.41580232622024965,-0.3877820027988616,0
818,-1.867132364244971,-1.9021762377254916,-1.8472728905522497,-1.894328043169257,0
819,-2.7465455917916266,-2.7223487302134126,-2.8622237728763844,-2.7806743864993693,0
820,-3.0002588863449935,-3.098453103196977,-3.018969263398429,-3.015510973597901,0
821,-2.6767295867509717,-2.636826919790875,-2.6801595861555767,-2.578732639901833,0
822,-1.8380250781450032,-1.9618736449885383,-1.92624651923884,-1.95226245754655,0
823,-0.8917043968154352,-0.8384845180633493,-0.753937441972471,-0.8103145174976879,0
824,0.1013649538771223,0.3087676445271611,0.26174300724562066,0.2353522681125063,0
825,1.1133510536162934,1.1211874977146987,1.1653063153434862,1.1044076695735279,0
826,1.5001236960199766,1.5875265970973411,1.5041423408562322,1.5471504864661914,0
827,1.5932965641846506,1.4273613789290347,1.5206230335248978,1.540887095823205,0
828,1.3227209041749055,1.1726712954429848,1.29964675785118,1.1936144741749777,0
829,0.7228532817107821,0.6976735098228716,0.6538521000314879,0.7200591810592311,0
830,0.002683609525728714,0.2570606820295639,0.08955712710167446,0.1686367463295687,0
831,-0.41637082058050745,-0.3639518860711991,-0.4277364165239645,-0.3749959150185673,0
832,-0.7546195156553059,-0.6493961817322027,-0.7512486788957713,-0.7497869681599119,0
833,-0.8370143852424426,-0.7807183078652133,-0.7752429085140146,-0.653840306267389,0
834,-0.6123949811414868,-0.5671733118834312,-0.5932342874352989,-0.6247086716458138,0
835,-0.4394680414445142,-0.37454317633247336,-0.43507412501426396,-0.3895462774983894,0
836,-0.10529019327130669,-0.11169944409533718,-0.10387287161300886,-0.1269098223950515,0
837,0.13758420485594763,0.13560751020981252,0.046725580052558724,0.11557444917115826,0
838,0.2156253994683726,0.32547725283075457,0.2716336430150708,0.2174919951687232,0
839,0.3150830792396995,0.3437279522172132,0.4263539263783512,0.35126430727835894,0
840,0.22821512874559913,0.38353825050387647,0.38618311214359113,0.22981239225920017,0
841,0.1982665755018758,0.16041318706115631,0.16239156822162729,0.059159261758467224,0
842,0.04871046220247425,0.11335537496323081,0.021634238804947532,0.14587579218409452,0
843,-0.06567115319201584,-0.1291689273350062,-0.08007539320225247,0.02291850269812163,0
844,-0.1431492786960563,-0.1450292741251436,-0.07855745433293859,-0.17014754516604566,0
845,-0.206345829287426,-0.13013978997410391,-0.040193493529742566,-0.13927829834760197,0
846,-0.17447621981388892,0.03532710289862019,-0.24938143742564156,-0.040192812373238726,0
847,0.04248909019914992,-0.0960645800322129,-0.008402011974760794,-0.021267258487500683,0
848,-0.039885041423896594,-0.0007648887396462774,-0.013268942808201213,-0.04325786482339998,0
849,-0.002143587358540054,0.1196906202645344,0.06126991192981078,0.10855743677430607,0
850,0.07077956948752362,-0.005197506447207741,-0.020724710126408766,-0.02736757155527097,0
851,0.007981060906585409,0.03685266184578968,-0.028900802796462118,0.029972695586317693,0
852,0.081604214055236,0.02127608182974757,0.012502191085879605,-0.10773323362586763,0
853,0.030173266548080148,0.06278180800208996,0.04627881631863401,-0.07728350516316525,0
854,-0.03574563990930823,-0.02324524738979539,-0.0039785539248545715,-0.07496147865867238,0
855,-0.036265770532100026,-0.009470283999440467,0.01673848208267751,0.03572359658244197,0
856,-0.0020527733423238454,0.02791183300647654,-0.044342016322636436,-0.06049925059570696,0
857,-0.03314245633237945,-0.007523814625904564,0.0008660742346226586,0.03735632333018192,0
858,-0.03074831075823561,-0.027137797128428072,-0.08258136213213808,0.022218220550054905,0
859,0.0015277082501796834,0.07576781448909599,0.032778653884817884,0.000897418143047091,0
860,-0.03034955744493882,-0.07853985988672335,0.0007470941299023886,0.0012891047556768925,0
861,-0.004422854230493807,-0.023886772283774088,-0.007061891471387822,-0.03445460827523129,0
862,0.08058397508772175,-0.014536027073654138,-0.016548353222708586,0.028698074094755017,0
863,-0.05610622267179288,-0.06647563824080471,0.07097063800184185,0.055123499482015406,0
864,-0.056188114538469384,0.05251102737811208,0.006530550135858106,-0.05424448984898946,0
865,0.020664336633052355,-0.06705740446441684,-0.04027475171487071,0.09058087341536422,0
866,0.08322682587317497,0.014930498279387382,-0.04027630285683813,-0.056659326913564886,0
867,0.08886339438918818,-0.01515927502856144,-0.010745083636406347,0.004151267739336728,0
868,-0.04276133938265469,-0.1061843292710043,0.037984442961821976,0.10619726095987218,0
869,-0.07631200783250273,0.012040510654098143,-0.007347271427533247,0.055095066427450747,0
870,0.1050025301288319,0.06828727855111086,-0.003555537761265497,-0.0680909298648429,0
871,-0.009262238175674167,0.08187065255359338,-0.051269439036926955,0.00530857809802062,0
872,0.06371117632532,0.07044395439558902,-0.06908795686403703,-0.06227091703550765,0
873,-0.04053313729328206,0.05761447478417095,0.020727178017032277,0.10599066931173878,0
874,-0.05272344927554823,-0.0368022942574693,-0.014962618488885355,0.001508856887119975,0
875,0.0030354067095421195,-0.01568764271954388,0.012884017158890405,-0.0044671406357626574,0
876,0.04953181233807647,-0.046768368412635965,0.019782820793746693,0.00410843611953919,0
877,-0.004153814527716306,-0.015566745421538342,0.009192350809060487,-0.010536240327194486,0
878,-0.0490994163330065,0.044657597294478706,-0.02239245911969086,-0.022187563781905766,0
879,0.032792156051695644,0.06798031590181286,0.017675129578844002,0.0026404875425302264,0
880,-0.06117138040937167,-0.020765777279947342,0.02850387174285759,-0.09762164636992911,0
881,-0.032644585080040554,-0.017791415461123214,-0.05987952381374919,0.024687072845553215,0
882,-0.0247313794141537,0.05259987972345828,0.023497748358221264,-0.07332731062321172,0
883,0.04445156239985181,0.05285826432252675,-0.052286817302218784,-0.022641612348570064,0
884,-0.003981119845079682,-0.061382340209729526,-0.021847462826705348,-0.027650777661563417,0
885,-0.043600935093646966,-0.006498357076912731,0.03264520767780814,0.04621332131027169,0
886,-0.047697542600450046,0.03339197712692542,-0.03447863320844215,0.027883685651072885,0
887,0.09524671014106956,0.030091876866957308,-0.004598791137880158,-0.045607594379332886,0
888,-0.007991518228081463,0.007987571917827892,-0.08482513488587942,-0.0354373473361094,0
889,-0.009555077431572731,-0.05204210123987035,-0.033440723444117026,-0.050333710055958734,0
890,0.11350534736320521,-0.06675214612242154,0.04432290283090922,0.05616966344545389,0
891,0.010376463827277554,-0.043234785130938036,0.043190174335965364,0.057624454749932455,0
892,0.059032557583507894,0.027458581155473373,0.0011887542022974362,-0.028780678090936835,0
893,0.05437244826962006,0.04815763666121172,0.07955227453823142,-0.014665402656851553,0
894,-0.04789247620942471,-0.005740506639668236,0.010413722330399252,0.05455257330597271,0
895,0.04681469286455059,0.06058271444750613,-0.12746636194540947,0.022675639609658484,0
896,0.007790971059500745,-0.019447582201430058,0.09420260241028176,-0.011554463364365173,0
897,-0.05895055983050212,0.00883067184712129,0.03649703166521239,-0.013587950232406717,0
898,-0.08261062136076819,-0.03061743226242922,0.08279676105046503,0.0030302843889850875,0
899,0.019949357375138824,-0.03748939739367718,-0.020775411803208858,0.059107653946028495,0
900,-0.037975308328800764,0.09677912109274273,0.07021846654031229,0.036161309601321426,0
901,0.05945631050550321,0.1259181002294495,0.03990958746683366,0.16454560987872438,0
902,0.24081941294914813,0.29244994838685057,0.32653851950401025,0.21836570667329996,0
903,0.44629588844054613,0.47389112945526346,0.5458515174633359,0.5514054856627383,0
904,0.9484311122538542,0.9022034277647223,0.9483560531886959,0.9615998448395036,0
905,1.5278667557226653,1.5038002493350475,1.5920435289429788,1.5508618648325496,0
906,2.4134745969697984,2.3859199519350676,2.3931030651778413,2.416101444613381,0
907,3.458440563639851,3.423604439049437,3.379157926329271,3.348074763565227,0
908,4.438129768838802,4.490175330550109,4.467387780945926,4.4464955963101644,0
909,5.498210039346751,5.444585294253264,5.576748248819421,5.572845957434278,0
910,6.325015245606896,6.426017463762428,6.330082924377773,6.344346605127565,0
911,6.9726824659986155,6.911801753244744,6.838794956602155,6.881908471660069,0
912,6.91122804527961,6.901362357998344,6.786211543896462,6.898504583184932,0
913,6.270188286640258,6.306734420302664,6.261123324968181,6.2793640618366,0
914,5.154213935048446,5.145854053859685,5.164478626897887,5.205321812286315,0
915,3.5986230667876735,3.617045200703726,3.6727876084770545,3.6225785226432436,0
916,1.8746801043001928,1.838851696007213,1.8389415093397687,1.8582769950308033,0
917,0.043709211599000666,0.005738562637669819,0.033241872043810586,-0.027739423103508666,0
918,-1.5896298262400934,-1.5347455849226586,-1.589862010091988,-1.5269551589829193,0
919,-2.683178558843497,-2.6901363300754566,-2.64063591431211,-2.6704477274469904,0
920,-2.999080877711489,-2.966596361382498,-3.018145429381751,-3.1008387655695624,0
921,-2.7618917908646092,-2.754810473233203,-2.7783909810625294,-2.7511468817197815,0
922,-1.9994412209623043,-2.076821303226045,-2.104978793941648,-2.1672496147109164,0
923,-1.1390720849905918,-1.0637047505869965,-1.1019216710335915,-1.0455827085219345,0
924,0.04069662225487291,0.016611888609261414,-0.050855778912082955,-0.06776274200073018,0
925,0.969099884552578,0.9168046799019796,0.950376273526013,0.9795540255510539,0
926,1.4904789700368961,1.5216239597644197,1.4705446964426212,1.4405207385070873,0
927,1.5819215179985886,1.606789204257904,1.527501172680901,1.5620922216055735,0
928,1.3366402666682866,1.2788462619169583,1.3053971249323195,1.445931067979112,0
929,0.8417507463212057,0.87479841263312,0.7949995245680475,0.8202702235954319,0
930,0.22047499711562518,0.2628207001205421,0.2698671083306772,0.3243507127880338,0
931,-0.24150305288063106,-0.3958074183934811,-0.2356880085732936,-0.26565461746225894,0
932,-0.5963642939513111,-0.7182570733948814,-0.6652510644411871,-0.5884088066821412,0
933,-0.7759454170987649,-0.8300497863735715,-0.7762675703608458,-0.8688021127463652,0
934,-0.6627344822288441,-0.6984949987947483,-0.6112604641403451,-0.6824974571503969,0
935,-0.425547389635366,-0.3890855107961017,-0.5199547269570932,-0.4433577783302985,0
936,-0.14283411160548604,-0.08717187538866202,-0.20752027219365,-0.0862692851052694,0
937,0.11552315251950986,0.06527321577077308,0.03725793846123735,0.1786449974143528,0
938,0.2742779041868745,0.2695384634986327,0.19315726531350713,0.2441261388055766,0
939,0.33986719411851557,0.28791642496558795,0.333633727719462,0.35978615246054607,0
940,0.3406480842291025,0.34438332495587837,0.34820479134149424,0.30266036386796374,0
941,0.13897972501274844,0.11159781321749138,0.1944654320143854,0.09890991179671105,0
942,0.09907717763984435,0.15460502178775623,0.09740813950893416,-0.036407247769416694,0
943,-0.14566688519689908,-0.014624780560855501,-0.12357132050976688,-0.11780851892950356,0
944,-0.06776750603313708,-0.17131711795302423,-0.06629188006183095,-0.1929208401571683,0
945,-0.14401015049037091,-0.11832276710114323,-0.04951604661888593,-0.06299969639642608,0
946,-0.21786859530018432,-0.13560866850785852,-0.1724292346854815,-0.09631252118263031,0
947,-0.07782361325646146,-0.06859974491907515,-0.1221711048050322,-0.09924582912210578,0
948,-0.08874162764903758,0.019617217906672254,0.009593571326773166,0.015407009086341888,0
949,0.00120825781810616,-0.016531870310816734,0.0654256264563578,0.04842725439721467,0
950,0.07502193796442982,0.002492386451848988,-0.04774968614703822,0.0656800316257208,0
951,0.04162690474773141,0.02990368214045288,0.055355871092405515,0.05609739622631879,0
952,0.05355269452162223,0.1365062350936764,0.04709452669666478,-0.03173292465641957,0
953,0.032413056152161064,0.04829214658685844,0.045949637751458675,0.0810516751061731,0
954,-0.013895072812040407,-0.0001468996719903781,-0.05206611518217294,-0.012455628788850242,0
955,0.04994655435076636,0.022454363960561777,-0.005620987136552724,-0.028601096524117763,0
956,0.0532069612866376,0.08379638121992089,0.026882895394888796,-0.04247613372006928,0
957,0.09949017546283634,0.042387798096591336,0.027719328661246354,-0.04381398992884558,0
958,-0.0006262653954449858,0.004287704907305326,-0.029569569992170298,-0.0700002975666249,0
959,0.0263665241478579,-0.033927560510322516,-0.04535331329183495,-0.04261226259319596,0
960,-0.07019837006771457,0.008886297298834143,-0.01449148644570335,0.12929167824535379,0
961,0.005994616695256549,-0.03381178839243746,0.03148990086405273,-0.004933129510044029,0
962,-0.022284359217396157,-0.05067365808678784,0.012610030363936632,0.004050700825013545,0
963,-0.05462976687237541,0.026040530616054568,0.07779414413090613,0.002511014791196118,0
964,0.03848899123341944,-0.033063675534543445,-0.03179608154868252,0.015771473416394243,0
965,-0.10043828344450606,0.06177784371048445,0.07343569721853366,-0.03733297175089306,0
966,-0.01641548864294402,-0.01605618755426702,0.04394600826363723,-0.005950554533976554,0
967,0.025748256454494228,-0.001711703531619927,-0.051023203405895855,-0.13711015469731502,0
968,-0.015265960626304594,-0.009280718553507084,0.06877187103248762,-0.0566475656450173,0
969,-0.05385672740703229,0.026543921243965263,-0.05989756125586369,-0.08262495173564885,0
970,-0.06330396211893081,-0.03740164605049008,-0.013209784422453918,-0.018817582418058587,0
971,0.029716741083162485,-0.004714886493088919,0.02405328113588063,0.05762007022166131,0
972,-0.06732414076188598,0.016845465262894606,0.003348669312793285,-0.0398373937165486,0
973,0.05215734838299522,0.09697652535016796,-0.08007047683558179,0.043267365083177536,0
974,0.009759766574160517,-0.05525739189522082,-0.057535569166130965,0.003009366515728001,0
975,0.07353256953993074,0.13369746283333803,-0.05979162039679887,-0.009822236748059484,0
976,-0.008199255330906973,0.07252266038400458,-0.013007071607714582,-0.046063236655380986,0
977,-0.0629778464468063,0.027382164921990235,-0.030351955755548516,-0.0036713129552799727,0
978,-0.0012514080985640144,-0.05451087463734888,-0.09524485680624394,-0.07181763391284668,0
979,0.0008884517939363136,0.029073868769240434,0.019274499319567876,0.024994549576136,0
980,0.0022856787863895687,-0.03228128951059185,-0.023520826960460366,0.022137588001668564,0
981,-0.014182327835420826,0.03838092080334212,-0.0004311059159760057,-0.014880277361574927,0
982,0.03797666555115728,0.04430640631934213,0.01870305669315665,-0.06808858787142037,0
983,0.03635326939744543,-0.0727571449002911,-0.05143444234162263,-0.06449740867351834,0
984,0.008464848966640733,-0.0009206712290405314,-0.03427281158111302,-0.01639841216749529,0
985,-0.09880212503721827,-0.02087866140451271,-0.033959398259868774,-0.007535468655720354,0
986,0.05256214908204518,-0.05331641215753238,-0.021817098946253558,0.008040319072570376,0
987,0.035534541204907094,0.017627581887501787,0.029246820972927006,-0.04809679207108132,0
988,0.06092270926396656,-0.02422196525306823,-0.002170898826752183,0.03151754674203361,0
989,-0.049820383936613595,0.06409055353453348,0.02378958158802135,0.0679153763088859,0
990,-0.019167093451748406,0.0021299480305503136,-0.024737608637579022,0.0386678358151785,0
991,-0.024954980381039677,0.03996451156093931,-0.003494874360214743,0.08449309925703473,0
992,0.048909737995131354,-0.0019655455698811167,0.005707476174580038,0.038980066572590566,0
993,-0.06550701456793098,-0.08998073223715176,0.027343374770193187,-0.04263279204476949,0
994,-0.015757653484441435,-0.0868070781448326,0.08741240324661101,0.072997091959855,0
995,-0.0006329954285359104,0.06754142484556738,-0.0395909409143332,-0.05311972378035462,0
996,0.03906894703589976,-0.010897571885585964,-0.011616764195168754,0.00865753448644749,0
997,-0.10049568525312451,-0.06954577221025958,0.07251478072870038,0.04731257984631587,0
998,0.07006754219508128,-0.08127239163728377,0.05941965046339808,-0.041309615624121485,0
999,0.01445780506276214,-0.014758994484315125,0.00021961533535594163,-0.10472220841854114,0
