timestamp,value-0,value-1,value-2,value-3,is_anomaly
0,0.3580842954574236,0.3160138164340964,0.30350317241304436,0.3181253610992957,0
1,0.4298590459127025,0.3581465860746921,0.406054932872857,0.39151435999776296,0
2,0.8674264340784428,0.9446360933319264,0.9755082773480809,0.822294750442067,0
3,1.691513437380373,1.6052311392244687,1.5842244436171955,1.6290985244234306,0
4,2.4982279261245117,2.474045925252455,2.4463009424546702,2.5198394297481754,0
5,3.591070237018997,3.5636653056268335,3.5057272787792964,3.4830666951667335,0
6,4.577607135986495,4.602737312392132,4.616579756947311,4.579467762093766,0
7,5.645107297482429,5.607897497941636,5.614482888719872,5.677723301286407,0
8,6.410267537161785,6.423684711491242,6.379562960916687,6.450984483292807,0
9,6.943141369259082,6.865334384051947,6.94854206669451,6.832593777353525,0
10,6.932245753344913,7.002924888827772,6.888158955790237,6.888822061395336,0
11,6.292463495144939,6.228729175765904,6.208030031722885,6.198230439419761,0
12,5.029715192670824,5.030733306334812,5.0225687199286915,5.021587589838943,0
13,3.4706118178414362,3.4858259545040315,3.4355627648938585,3.4988079013097204,0
14,1.5474874513759405,1.5753646669302992,1.6860543914272659,1.6330017534243069,0
15,-0.1441868650802906,-0.15112519410962794,-0.13354285432784543,-0.0872711985268039,0
16,-1.6742299057629826,-1.6259816488609227,-1.649132893720564,-1.690842850884735,0
17,-2.7507931970980266,-2.802982005653993,-2.748885893944051,-2.7276410082358944,0
18,-3.0326052701359263,-2.985065242408114,-2.999696816607216,-3.071453600023308,0
19,-2.6804940293770545,-2.8077160613180268,-2.756890978270821,-2.796829689700021,0
20,-1.9062539377897785,-1.9241844294182202,-2.0173328995587276,-1.9270428757951186,0
21,-0.902335579025537,-0.986514514011806,-0.9705951137642117,-0.9977642723446206,0
22,0.09239555026607024,0.14212363371952857,0.10798002064141635,0.1498700905103267,0
23,0.9961040990520708,1.0685842319615384,0.9722397015069097,1.1205419486172576,0
24,1.4642286705679812,1.5011822484345545,1.545926075076766,1.5421405508545143,0
25,1.606504550969665,1.6026041830697746,1.5596510165834339,1.5612018463647255,0
26,1.3000232323202958,1.3698543012153805,1.1986442427982993,1.3446138037334179,0
27,0.8679372564701686,0.823470196349122,0.8618426264335282,0.7418964984874367,0
28,0.2115567061470602,0.23769845538818918,0.20489417881449867,0.2566134479290135,0
29,-0.3584575873783126,-0.34703488231639,-0.24559844806804879,-0.3607581798169114,0
30,-0.7641930497292342,-0.7664317849566807,-0.6162230421793237,-0.7281899247131957,0
31,-0.7972455020900208,-0.7868529101142699,-0.7758755176909601,-0.8113829745473063,0
32,-0.626422798568493,-0.5994813642560417,-0.6275575053397991,-0.7048056029443618,0
33,-0.40776212226883163,-0.45355815227840357,-0.44231089107152444,-0.47550714515621784,0
34,-0.1410070745237729,-0.13978844942457,-0.17592547758632687,-0.14423966448911898,0
35,0.07801691252706881,0.1525960956955278,0.164430836777589,0.08893269213220785,0
36,0.26306508154548525,0.2846503658125477,0.24537648582024588,0.273249031701851,0
37,0.33847440646968996,0.29943882369762587,0.28084892845556136,0.2737885608899375,0
38,0.37398539621620736,0.21951608170475412,0.2504712733311757,0.26085516102279,0
39,0.16473421786441586,0.18558488656440408,0.11144242568824213,-0.008593152515419478,0
40,0.07503817545284405,0.08627504720779028,0.03817098410789686,0.017048108930193078,0
41,-0.04989840235636192,-0.032649266685151515,-0.06245638189854104,0.020407744148762043,0
42,-0.10500582939673382,-0.12619159593528947,-0.04911435366462248,-0.0930893549440016,0
43,-0.12442499161625184,-0.1685156476160074,-0.052200726303255736,-0.14397888702503997,0
44,-0.16392155004708647,-0.15090091210614498,-0.04957339921058835,-0.2204312669333761,0
45,-0.056626641187766676,0.0897483599065251,-0.026202877106552752,-0.022338256074333658,0
46,0.05234426674527168,-0.011111443212633932,-0.050201811311133895,0.0158844516940466,0
47,0.04056368223789588,0.04726964257247517,-0.037203053490051693,0.037181063749924276,0
48,0.006000808373408949,0.11185381174542125,0.051692622763504906,0.042758763133205674,0
49,0.06306046518531365,0.05267333575335945,-0.018256023073790813,0.13271059380982908,0
50,0.053049887269818394,0.013802523222742016,0.07646659408432567,0.13025518207963224,0
51,0.022742216297792862,0.01809498147638743,-0.030372759461030595,0.016652351218451503,0
52,0.0491805415072592,0.061359535204389276,-0.014727055185113498,-0.0453169444861268,0
53,-0.013447638238492406,-0.01303458700220184,-0.1247012447388038,0.04341748050473585,0
54,-0.04017574463021976,0.03158796334301668,-0.03636914739851156,-0.05410187358477,0
55,0.04429408189571938,-0.049439774010071894,-0.09910077186784721,-0.007030255963755444,0
56,0.07377021912647912,-0.12624364565202348,0.01260801723400785,0.03576510148659266,0
57,0.0665828190024744,0.04552906232279159,-0.006082244742813422,-0.020727706274311954,0
58,-0.014594368696296477,-0.027899073749064578,0.029066502859054297,0.016601920603171987,0
59,0.001446993722157808,0.014367147809591375,0.15443140112236298,0.0003823769924714395,0
60,0.026090471465799646,0.06871180556829717,0.0260406156281894,0.0031271523381703374,0
61,-0.0350188408293296,0.011589347568298386,0.028542168331093642,-0.03543773175101423,0
62,0.03309341988613205,0.10608672566258558,0.02988655742344809,-0.0676527030680707,0
63,0.010522191025946702,0.04342078525566359,0.06443108626214097,-0.0534990086839366,0
64,0.025197901314161365,-0.0406647793782963,-0.002746321264936411,-0.015222963919663116,0
65,-0.011164533757200888,0.025246512254840495,0.020831320361112567,0.04854178690746548,0
66,0.017717339129520913,0.040863226632560916,-0.06976757640310166,0.012579197731271188,0
67,0.03247157672449642,0.062283558855975515,-0.0734204842924927,-0.03004708099918099,0
68,0.05689311297965494,-0.028326850616276735,0.014588459621019475,0.07191400226097867,0
69,-0.02404120375658469,0.005026599602580917,-0.024156402047391373,0.03907978496131485,0
70,0.08853701920945317,-0.043760063495399494,0.0399657293693015,-0.018447529098034324,0
71,0.04098060773384119,0.04859882224062229,0.024636178933902547,-0.13690357666164343,0
72,0.0022159908624394932,-0.05489917219168098,0.02825936103901955,-0.01143465800822438,0
73,-0.029480519260037523,-0.014741095270725561,0.06738730883136465,0.0009407691809163855,0
74,0.08100511541816732,-0.06691226488154321,-0.02918128191291147,0.06651917001358719,0
75,0.009786623875036716,0.08553693536325353,-0.03732475943087655,0.06401066537256522,0
76,0.058406155832918936,0.003225450301625234,-0.01650180366307887,0.06445151419376037,0
77,0.034545415196500756,-0.030872599351523037,0.009260306185737829,-0.010297753520460745,0
78,-0.0229828429708508,-0.03471127844112118,-0.014165535315036448,-0.03516158462977772,0
79,0.013640986982418358,0.011111291139043697,0.03189785997644498,0.011355314734210973,0
80,-0.013065997921346448,-0.0032161516881064247,0.008999987562000796,-0.01283382377052838,0
81,0.0564931992592726,0.08701118915935536,-0.017778753961078593,-0.020077224497790834,0
82,0.08785913020576983,0.047878062652110566,0.07247570012112096,-0.029859994089290694,0
83,-0.035164194411840856,0.0236026986437914,-0.03952165043669488,-0.024676576520266565,0
84,-0.09055197010756864,-0.0006069713949221285,-0.08821677970822685,-0.11045807874093487,0
85,0.047838077067572,-0.03777820298059951,-0.011668280720745196,0.04830092489311468,0
86,0.043261781018678745,0.02190061845069079,-0.05721668779923048,-0.10220640779589969,0
87,0.061115387621948444,0.014217632062244757,0.02597893598142742,0.07340720272387946,0
88,-0.015284961017986798,0.03676935782541295,0.03162216317472644,0.028894950402656907,0
89,-0.035017157516547714,0.011940019430073529,-0.03142046985993203,-0.014019634096528129,0
90,0.007356914670787408,0.02985958472090809,-0.050369146773552066,-0.017394799595356752,0
91,-0.02520700087358784,0.0403729143367187,0.0261362170567463,0.011601772120879686,0
92,0.000659524888071923,-5.030555486192035e-07,-0.036492767628693266,0.05313609554868555,0
93,-0.03544722454284454,0.00879771232780899,-0.027518731441098926,0.028069928333319925,0
94,0.10362847892802321,-0.05977850441788671,0.0735750385011842,-0.03289299412803373,0
95,-0.05625007958264216,-0.03999427077447154,0.020403715392356064,-0.014588631968950164,0
96,-0.03805205110606974,-0.0126614317057689,-0.009970402936416229,-0.045855822633584065,0
97,-0.03758355911606231,-0.10381232309266167,-0.06031284542231852,-0.05227907013035756,0
98,0.07643291194454832,0.08271988510822369,-0.02180849096893231,0.014367281290197795,0
99,0.019857598823437184,0.12736080893523505,0.09395956668816954,0.07957211431239973,0
100,0.20981071440743995,0.2570342978261525,0.2734961640144849,0.1832023097262047,0
101,0.5539877168346717,0.45775767121542443,0.49155533487455044,0.47454194409587364,0
102,0.9135607787057892,0.8888364414390969,0.760033476296929,0.9136094137811839,0
103,1.425675795725055,1.4040095042345304,1.4851431295724165,1.4333076879736468,0
104,2.24843199075032,2.1863241395710795,2.2939735709649627,2.2120292780495676,0
105,3.2952821677765707,3.2186482731826813,3.3379303970801106,3.2453201933231823,0
106,4.40025921862329,4.273675975821759,4.328033336755835,4.30014593075535,0
107,5.316739510087343,5.366471146199,5.327617525973051,5.384763923134849,0
108,6.271766733337184,6.163268525929794,6.222522370336801,6.344729325737097,0
109,6.841788867461874,6.754172552382061,6.860985114485728,6.823374895255766,0
110,7.040798632686318,6.902637200003171,6.996689457004917,6.983127941568065,0
111,6.466835270679332,6.428402432265109,6.4056102526639345,6.43713276292922,0
112,5.335296143833147,5.344133499663307,5.2908233736195465,5.347164673329999,0
113,3.8288903066436855,3.8111310336119604,3.822084789663271,3.9107022662079514,0
114,2.02898440145445,2.0868613339614766,2.089130047770817,2.1019190827821688,0
115,0.3002127561015967,0.2512125995694248,0.15953859148013455,0.15227199114005271,0
116,-1.4220341133645045,-1.440818054363444,-1.3709409386020077,-1.4099709092654054,0
117,-2.503958756435885,-2.5539047855664667,-2.5930760323272097,-2.5145374628948858,0
118,-2.947934550263642,-2.976825712574262,-3.0229449248043396,-3.056466366164212,0
119,-2.7912313475350636,-2.796682581851854,-2.8325121653665106,-2.833531005179258,0
120,-2.166823140195429,-2.0758013656695633,-2.227438331370053,-2.26250719055567,0
121,-1.1729465409740545,-1.2782701923455961,-1.2719624298500984,-1.2767237623914496,0
122,-0.12562763042017683,-0.16639395687281672,-0.1083463037822062,-0.1326887382490125,0
123,0.9064616898703706,0.7683056223313054,0.8967676289991318,0.8248833078900275,0
124,1.5401613107928902,1.3993184168957342,1.4541290904041964,1.39561489859288,0
125,1.566331112998334,1.738597789000328,1.6462200870912471,1.5958231646817922,0
126,1.4099843265657375,1.4096567583530377,1.331366763671102,1.3251216198457338,0
127,0.9718504969107614,0.8177781738797502,0.8041346301146157,0.86128011020031,0
128,0.3632792273679768,0.3101516484970488,0.37339886053032356,0.2490022685316165,0
129,-0.18876737595296905,-0.2674311508825251,-0.21225311284707055,-0.2599996637559895,0
130,-0.6318264196188879,-0.6869115836259583,-0.707969479589589,-0.6410523113079435,0
131,-0.7674038254578248,-0.7464266398554303,-0.920582746711319,-0.7858633023280566,0
132,-0.7679606177842279,-0.7251232181377693,-0.7193403834700997,-0.627862781653783,0
133,-0.4918223874470279,-0.4103975109096435,-0.39007267196023415,-0.5002207765420128,0
134,-0.12502278345089202,-0.12457794985877407,-0.16699493912835622,-0.11546424233536748,0
135,0.15788077889347213,0.0538219360856716,0.07803354456123672,-0.02551507935739078,0
136,0.27129154147049883,0.2713333123648216,0.20695967699372225,0.2602327710686442,0
137,0.30898579609611176,0.29461165271024453,0.28348073203835633,0.30621074566934986,0
138,0.3043541273960105,0.2698671678720087,0.3486745524432146,0.3293234694449065,0
139,0.2031392170271543,0.21615388068094468,0.19504227436958205,0.12929651495055777,0
140,0.034025999307241525,0.010108181324275503,-0.014922364037662617,0.1289141077860626,0
141,0.07325504491993425,-0.01232934651101189,-0.08409198487808484,-0.14226036466414832,0
142,-0.1084563078733297,-0.13271914559004722,-0.07128890409905222,-0.0708171286685414,0
143,-0.1346485221508873,-0.0849145268778067,-0.12069150270751806,-0.07360793997281072,0
144,-0.07473200422867506,-0.1617933460267045,-0.12900352073632604,-0.1052149250310284,0
145,-0.05305513930139778,-0.15704452557077805,-0.09874157498844083,0.022180235222825917,0
146,-0.015264829711758798,-0.10642208351497288,-0.006731601807566642,-0.0027491750830919842,0
147,0.0034750603776972297,-0.04901828347440851,0.06281876869507241,0.012699285295136012,0
148,0.0032305901801928556,0.02509515990200665,0.036230478126691675,0.004191961449717296,0
149,0.09265722309312067,0.10738226195739756,-0.028765590447728404,-0.0050363495773094805,0
150,-0.040143898873686655,0.038857486337979044,0.01586922071277761,-0.10285623508217051,0
151,0.020082228101987606,0.11608577147508536,0.0019837285826655154,0.06146943342357548,0
152,-0.03892210762230432,-0.05464658659041281,0.015292029556130935,0.0575278251054965,0
153,-0.009484275197391711,0.019605011025561038,0.006153323055798891,-0.011636871085332571,0
154,-0.06909549626506778,-0.0026793845679656363,-0.005473307616547062,0.07580947288386049,0
155,0.004681674366739957,-0.06775816473644948,0.008061225293850022,-0.015369621087011974,0
156,-0.012978690551858546,-0.036638822028981895,0.04715097442861372,-0.043397314703236954,0
157,-0.03631692550053472,-0.07171387491888911,-0.08776899123597467,0.08174859901448943,0
158,-0.010904365768476955,0.009307289046091068,0.03736883270119587,0.04660188155591527,0
159,0.013927938750876825,-0.01884731521462946,0.026998889837309553,0.01723880964626186,0
160,0.03213646792109592,-0.08980994910165112,-0.00697135441245078,0.026878704215165646,0
161,-0.047814887684923604,-0.019424748822598814,-0.05351404537237755,0.00927678208973456,0
162,-0.003491260844503893,0.054758202918393575,-0.07507847377209897,-0.05028836657195116,0
163,-0.016794572869083355,-0.010737218929815578,0.052850200867799874,0.10715815508985085,0
164,-0.018506613273421183,0.021550276541769033,0.01442186064673352,-0.0538885608821468,0
165,0.06811280050829618,0.09026496694181145,-0.013244362418035876,-0.015148233703027349,0
166,-0.04645446311500711,0.08457347639904539,-0.05639238580488781,-0.05189445111305296,0
167,0.056468899157233715,0.0015672432330428607,0.0374223290724056,0.11144110199540297,0
168,-0.05769430658016564,-0.05706108988903866,0.007663330151443717,-0.013861688818217175,0
169,-0.019908926652713127,0.03304410457937546,0.00808846961201842,-0.013773195380624052,0
170,-0.06364145876822389,-0.05938675330799941,0.032749335436089246,-0.02197271952946422,0
171,-0.009602738400522889,-0.016222383174572353,0.015353650933533579,-0.039474118233912246,0
172,-0.09368983244816112,-0.035739317932371055,0.005639764607214596,0.03615270030065329,0
173,-0.03429468518649337,-0.07304484378523046,-0.017853090059495546,-0.037699336025265796,0
174,-0.09384029094537982,0.03961680529497956,-0.06231969446347786,-0.01949493393752942,0
175,-0.018348378068453634,0.02240036931748805,0.04571341926608202,-0.07128600264846538,0
176,0.04362045309772843,-0.006250870575797702,-0.008656795537440611,-0.08217762167148365,0
177,0.012479016056142286,-0.00593387025179456,-0.012254461009884329,0.03431875295843321,0
178,-0.03917814030823319,0.10947018083035652,-0.0019265234018346026,0.06020895652958985,0
179,0.04558556823050565,-0.08390731059334144,-0.0061884003797835554,0.011501111899549195,0
180,0.029205713567477993,-0.027167840105241217,-0.047296553452373755,-0.034255048158929935,0
181,-0.010491569563170799,0.07178721758253391,-0.004861727280264525,-0.054496577589806465,0
182,-0.018075350843055553,-0.044316317010017814,-0.03406735141718844,-0.025438618410317384,0
183,0.012024262396888665,-0.10772469552857537,0.11864529946271442,-0.04374171057297196,0
184,-0.00024273461973439207,0.03139716733720356,-0.0020818945093103503,-0.047633869825730306,0
185,0.027274591856233384,0.03839538026893111,-0.02266185856802313,0.05119835001751149,0
186,-0.0032731705799679887,0.0015127199573281595,-0.01720596597501447,-0.0395860999457278,0
187,0.03589245312991248,0.12302559522981217,0.042409464389373895,0.01080767550991683,0
188,-0.09352711889311575,0.06488724819416009,0.047449217668907494,0.09594599993443165,0
189,-0.07975283589006449,0.009530982804218484,0.08344937826591922,0.06311903025007137,0
190,0.011662788208385356,0.0009639095818441852,0.04477472991262218,-0.016224064552600417,0
191,-0.0609898856560249,0.04483431813259508,0.0050570795986281695,0.03200600207079659,0
192,-0.061046253814137925,0.0533526446108054,0.06695609257439453,0.03536365706685474,0
193,0.009006829372208106,-0.017590910956377333,0.019091265878701788,0.015413598410816286,0
194,0.06331377537040278,-0.04323323534579374,0.03605781496857037,0.03451954889861938,0
195,-0.06714435141360195,-0.01073458190169165,0.051194257246488316,0.05584383711785862,0
196,0.012022581674690428,-0.03973690866112856,0.037545628475881915,-0.08438336982054659,0
197,-0.0034867407918101135,-0.025225667246123882,0.08278333046656658,0.09476921087400544,0
198,-0.037109213426848184,0.02492270139450564,0.00981144841492362,-0.04282715293283354,0
199,0.04081857797290668,0.046333804083812866,0.0008995650776924616,0.0762337677958253,0
200,0.1869567648669801,0.24877670990771877,0.10247513756735797,0.1677506091888593,0
201,0.4438752220174051,0.47079826057121804,0.44919710369830645,0.3392802553666564,0
202,0.7562297903454529,0.6805864238972916,0.7662944979314016,0.7270099577396221,0
203,1.3295115443224736,1.2462034175731225,1.2673077909864534,1.3236694373103217,0
204,1.9636763625298221,2.043215649075997,2.0859895784589835,2.099351994469659,0
205,3.0739326803237224,3.0676512824165516,2.930197136070883,3.039630094563617,0
206,4.1116111818660315,4.085882680171459,3.9880572469592765,4.070020903972654,0
207,5.074268078085171,5.077035431603907,5.128441927052633,5.162805627722319,0
208,6.103690891569496,6.094895357899952,6.107485668069094,6.135090145561211,0
209,6.648472808681652,6.751634947084849,6.710109673298069,6.7466605010393765,0
210,6.926348310866826,6.9554055704876125,6.971863905726369,6.918584993886577,0
211,6.691235495983673,6.575843527090722,6.593067384260219,6.474263892044617,0
212,5.634154921274805,5.62129026868329,5.655889721865758,5.650086485709121,0
213,4.171448975723784,4.25741424984244,4.200840875913321,4.173047626980685,0
214,2.5950568637089297,2.553225185943171,2.414571128810408,2.484986773384209,0
215,0.6447819378815571,0.6642903072306394,0.666488188451306,0.6869027466089013,0
216,-1.0318455177145014,-1.1047706436544473,-1.0906578383895749,-1.0203587400653054,0
217,-2.2296761002424397,-2.2774822346127266,-2.285978190444219,-2.351207021844426,0
218,-2.9292560582219602,-2.9692612145355053,-2.96369073514146,-2.9797949301563826,0
219,-2.9283416013214674,-2.9329475856390026,-2.960407848221541,-2.937794547492792,0
220,-2.349567088747493,-2.3927429718757054,-2.341784901230451,-2.4154138920177033,0
221,-1.42596680446564,-1.5323918973144628,-1.5160234295180133,-1.5426549232159283,0
222,-0.34682466195964035,-0.2868802757892811,-0.41997412766795117,-0.36952850503646223,0
223,0.5320847442814186,0.5315920881430652,0.6249966557657773,0.5836039185507992,0
224,1.377616339381294,1.25469967531407,1.3506925678715662,1.3555028150016086,0
225,1.516599578239428,1.6057241075634414,1.57349489443982,1.5699444725937808,0
226,1.4934838490816627,1.460824842743717,1.4771534394636605,1.4945964563936964,0
227,1.0781795101757405,1.050109752124017,1.0531685815662122,0.9726127916172004,0
228,0.4744491395363759,0.4903191500343801,0.4591200373869729,0.5123122350695807,0
229,-0.13749008116745287,-0.1781257423530607,-0.11554240547517626,-0.12977207853970468,0
230,-0.4977466476408722,-0.4375371431790934,-0.5960604255641334,-0.5408982785675561,0
231,-0.7280519053692421,-0.7994877282896232,-0.7904195102847738,-0.7169660874655299,0
232,-0.7304630380286999,-0.8264921116885346,-0.7813252782677332,-0.7069574023282736,0
233,-0.5360446000400461,-0.5402988293717724,-0.5234942074890689,-0.5866410903087798,0
234,-0.282325511812641,-0.32029943776289416,-0.422505868880252,-0.2498418284190158,0
235,-0.019519836822108547,0.11074238478696179,0.029253416258984036,-0.004400558692984915,0
236,0.17676460810359923,0.1697543815798627,0.15462367232323931,0.17858300669464602,0
237,0.3236076600244625,0.20265536525827227,0.28605575666150734,0.31098845289174903,0
238,0.3582917307177339,0.32301142173217706,0.2875218334688388,0.23577201001147235,0
239,0.2644651580837559,0.238624303866803,0.2682156198599754,0.18284347336981216,0
240,0.14487953072141202,0.029651365872090996,0.08661604577927552,0.14741321870919089,0
241,-0.14035627582444807,-0.022101317795852504,-0.041970662014875475,0.006865263092212729,0
242,-0.09450414811658037,-0.07078385301645146,-0.07053973657781473,-0.08275902483516999,0
243,-0.1520773304349175,-0.09541489964520015,-0.14188409525125104,-0.15898097060721372,0
244,-0.02718993963686024,-0.07216998708876046,-0.17490427334389785,-0.15799152277515616,0
245,-0.19516332506477782,-0.07734261813994038,-0.0008326394376253488,0.051882204794775386,0
246,-0.03359375624142307,-0.00936723447684656,0.005838828924243762,-0.011815584545635964,0
247,0.0009670298414345977,0.04187820859915582,0.03320144890548944,-0.005881449928206469,0
248,0.04534206783990157,-0.06673742844720375,0.0942216951270463,0.02285550699264085,0
249,-0.13270830369723252,-0.030222852861054007,0.0015382515995187099,0.001488696797042971,0
250,-0.05941198148806141,0.09457997143160975,0.006205174833910202,0.06892774650587596,0
251,-0.0492554514554088,-0.010376723858540533,0.00917385725734466,0.07458448330490045,0
252,0.0001579456778768168,0.018296933106736087,-0.04200813265886142,0.0251194407734558,0
253,-0.05904693337804711,0.04670703923721947,-0.06691026587057898,0.07002011375820286,0
254,-0.060000399613396885,0.048548278845762086,-0.042056150332859046,-0.03564409106134537,0
255,0.02512658696269068,0.03661358845156691,-0.008263142917555016,0.07675757533677594,0
256,0.05433808256176978,0.03339060901742428,0.013098125610451707,-0.004328352542176373,0
257,-0.04497164320499872,-0.10094226174729559,-0.026704166238256992,-0.015213360704987024,0
258,-0.08363219816563613,-0.017400955521322,0.036106918798013046,-0.07374528986672166,0
259,0.027699499605487135,0.10074947750276142,0.008601893112185632,-0.018605484327312828,0
260,0.04941310886618734,-0.02542542475880713,-0.10595905953548544,0.03254947221406501,0
261,-0.000649124301678295,0.06313171767856535,-0.022567672175485005,0.01798359637707432,0
262,-0.03575081854098881,0.08202046721649192,0.0074236593461698116,0.014723110600031595,0
263,-0.031282147843935536,0.004635754824683114,0.03344302331691998,0.049256077864433166,0
264,0.025950904262949943,-0.0388968471975991,-0.08372226082313973,-0.028295768593754125,0
265,0.0016553439343580337,0.026382855968277143,0.07270403081527349,-0.06597556175746129,0
266,0.03453615209360668,-0.016700551981366253,-0.08429704359716352,-0.09203947992359808,0
267,-0.019613979301097765,0.02248407158758577,0.10037107037324451,0.03438538610155336,0
268,0.03411792849900686,0.09932070894975104,-0.07415697927386421,0.002125680478709994,0
269,-0.019988238173903862,0.02513710536616217,-0.048385124363430135,0.05406209686673728,0
270,0.004465478207206457,0.028878472211145034,-0.07233953750825522,-0.036004939957599034,0
271,0.006459700977359438,0.07818986284797731,-0.010581560776750463,-0.006904485554634942,0
272,-0.03281008164781802,-0.02342004145834326,0.0504253168766639,-0.02548620843070099,0
273,0.04025458426540844,-0.002913487771937814,0.0317331682817297,0.038302341901199306,0
274,0.005504328837717529,0.024339044659306742,0.08737984982375158,-0.029944941268029802,0
275,0.00068164749010069,-0.01407154743525239,-0.05855415970160035,0.08776250816229798,0
276,0.00539940414953858,0.027062614071033296,-0.05785814698345268,-0.016828460977249597,0
277,-0.039460373887448386,0.07169044386072831,0.008430289751631778,-0.006863454332874448,0
278,-0.057982046149494794,0.011339875928877871,-0.012147368916309985,0.0037571382271257003,0
279,0.017981965158795462,0.014200363413054405,0.021649963226798415,0.06178744386850203,0
280,0.014585132853809187,0.008038034245664747,0.0023893174113281653,0.055703861538395676,0
281,-0.07887230620877207,-0.09256086115265508,-0.036552801539062034,-0.07975419171938172,0
282,0.05491950454158012,-0.030908684051663873,-0.003455469612539224,0.07887797670980064,0
283,-0.044978298414571107,-0.0206993048156301,0.00983914241427082,-0.0034429768586821652,0
284,0.03627280404739451,-0.07358953243513479,-0.01539481798168381,-0.06146227813098623,0
285,0.02050500782844703,-0.00019870091967329258,0.009712805782751514,0.019772129598676563,0
286,0.10780790136407939,-0.031095209560790763,0.005642551822642812,-0.03177600776812682,0
287,0.0002318900880291115,0.029684751979564356,-0.02343830687456846,-0.03212905609455237,0
288,-0.017844370485710873,-0.04880195433226719,0.03854779671882114,-0.04160001641735944,0
289,-0.0017350465527308388,0.03413388089766378,0.04810987438087322,-0.02493945285685235,0
290,0.11793167337255411,-0.012134125308026475,-0.024555020457740127,0.08747721851628909,0
291,-0.09839737271846975,-0.042343638240046944,-0.013488943807577152,-0.08747085664257674,0
292,-0.04791150311363172,-0.02000145241058197,0.02338817274394222,-0.004640358816053396,0
293,-0.07346714279375988,0.0465102041563331,0.015825707104859536,-0.05607816796606199,0
294,0.03103276321337835,0.051975096985950764,-0.06029254324914549,-0.02196394287994962,0
295,0.01394607017860092,0.018551860156024825,0.05087948352370574,0.00607317385153454,0
296,-0.06932656674849529,0.029368870396922816,-0.09744675525226265,0.04901780248409866,0
297,0.04824432795644112,-0.05677775626632596,0.06060577445684977,-0.031655938151504005,0
298,0.018231188203040264,0.03214310771051785,-0.004331671459113911,-0.014325645975704595,0
299,0.007976325056714743,-0.01555521992954638,0.06471190289230791,0.0420014785943132,0
300,0.25502347265325465,0.08642059714013198,0.101981947803872,0.1435754793422313,0
301,0.2655167856434026,0.3491950289111224,0.2787495793982502,0.3049457685522369,0
302,0.5999013178748247,0.6607880859446195,0.7227499325236539,0.7286297254014729,0
303,1.05204122014675,1.2162418367360521,1.1707211981003163,1.170031828323426,0
304,1.865559382761042,1.8059464508661365,1.8203221150553006,1.757832184686149,0
305,2.7559378116191304,2.8808634961378883,2.706925013395078,2.648879549966781,0
306,3.828489230389962,3.763171423043091,3.857866997124749,3.7564762811525894,0
307,4.88788135966783,4.798821049551506,4.865384629600445,4.827728700902555,0
308,5.925502587902169,5.786807767815873,5.822294682242296,5.858718688008796,0
309,6.6836974865213765,6.561034373892884,6.611485965201724,6.648537098022648,0
310,6.9871590122227465,7.002362764070686,7.00328357999105,6.902268929304748,0
311,6.788640879826457,6.808070740344222,6.784565590007495,6.745241117897532,0
312,5.880112012675206,5.934324693014351,5.9696297271797745,5.9246585645335985,0
313,4.545083418658089,4.605272466720046,4.547789432592218,4.6119163538943075,0
314,2.836141882700381,2.8940194838294584,2.972354195125656,2.8974517112658393,0
315,1.0920440848253272,1.0321480148447428,1.0678788178395313,1.059730202636488,0
316,-0.6488912008461853,-0.7486030273716309,-0.6429746301078476,-0.5976419006360725,0
317,-1.977558656892402,-2.1570452074777515,-2.0899503376459543,-2.1248403323100766,0
318,-2.8714190244703977,-2.843739288853921,-2.8976594583297324,-2.878730728503291,0
319,-2.9908858370463105,-3.0062285033033604,-2.980830114181984,-2.8749326840101443,0
320,-2.49955497690698,-2.559684904203915,-2.4949355676173735,-2.535249460567833,0
321,-1.6893093367805216,-1.739531926803225,-1.7143438899939474,-1.686736466824057,0
322,-0.6196291970446249,-0.6489979191288826,-0.6919189937203328,-0.6477840708430302,0
323,0.3266415746214841,0.35234361164341477,0.3505399145087384,0.4141305685681857,0
324,1.2339505159829611,1.1793432660675212,1.1884723438000082,1.3147510791340045,0
325,1.5636543139552077,1.5652864972870835,1.496139773145109,1.5301239390926218,0
326,1.4478890434890328,1.5305359591751073,1.5157884980438534,1.5108659882593132,0
327,1.2162276079998,1.2397438928443405,1.0576850467630337,1.078159494740085,0
328,0.659515837588432,0.5933524977577724,0.6498973234422968,0.6433159567572082,0
329,0.09989467241259267,0.12586463517600519,0.026366302314708635,0.05116153168595966,0
330,-0.4347021777710465,-0.4560250195133794,-0.38025802054591445,-0.4302059578435673,0
331,-0.7906507095490362,-0.8195434151880685,-0.8410832384127541,-0.8298706700553787,0
332,-0.7782978708232443,-0.7301655776195901,-0.7426989702397279,-0.7615423479538874,0
333,-0.5062986986780007,-0.5658403104407953,-0.7071808666855998,-0.5111698635256502,0
334,-0.3180045250209023,-0.4509705733836692,-0.3866638303867833,-0.277048134561375,0
335,-0.07429579343510861,0.0009565111804800547,-0.12521853083723766,-0.1021257033595196,0
336,0.10653258254071979,0.12411087247607297,0.06998133133225096,0.17205963458012688,0
337,0.2847641162067314,0.3213243986015711,0.35105873807742677,0.2070027927313038,0
338,0.230247922803938,0.384828827865129,0.32586314211692113,0.3022270598979997,0
339,0.3193865460151531,0.1306853715287316,0.29113014132943255,0.2040906032718626,0
340,0.194191320165907,0.12303125801481513,0.13616637531405948,0.1278845348564661,0
341,0.1200040181942531,0.030466894147994195,0.00016874627956444017,-0.024259280848279663,0
342,-0.08447014812950934,-0.031152082048738608,-0.09191411839362686,-0.08952580696552685,0
343,-0.12593581320781394,-0.04875020233039053,-0.0319594121484533,-0.11018701859092116,0
344,-0.130600008535426,-0.11912653954137381,-0.10914344220297899,-0.08201269597074133,0
345,-0.05163035592116696,-0.021458277512535734,-0.08070057475354342,0.012368113447588383,0
346,-0.15799920852491933,-0.03932488506081784,-0.013708877648691081,0.0425492008153667,0
347,0.04800377572066489,0.05492280270221351,0.0006385697548868616,-0.002988782333924127,0
348,0.053667004619022615,-0.0033908610129904683,-0.013847570660399253,0.1053061056307974,0
349,0.10637799199244406,0.1264046645686173,0.022717599109372662,0.0536295952546722,0
350,0.12620754125959213,0.006205080422059483,0.04742910463871744,0.027394376292512856,0
351,0.00887623835127289,0.08952775062853163,0.008431737571098063,-0.020510613994581466,0
352,-0.019292354968103838,0.043426333634177215,-0.13984497196523926,-0.013224184278902387,0
353,0.08824687961559428,0.009448259842733373,0.017334643308590122,0.04902093593765252,0
354,-0.024420616378580434,0.024688845969393997,-0.014876782357129682,-0.06472370152843775,0
355,0.004023867746986603,-0.03751592190948744,-0.015909011834316727,0.027198285263047735,0
356,-0.027685844174936573,0.05054133703890131,-0.106845121189339,-0.053192848374458264,0
357,-0.008530952330159776,-0.03492041981032054,0.07894248318583948,0.015905861259324947,0
358,-0.06907009171128865,-0.06302574554704034,-0.016103086738617253,0.022806876074953648,0
359,-0.023196634157643198,0.020874971534081015,0.10447187380648591,-0.002138657607713749,0
360,-0.02943173355563988,-0.06054832185276858,0.0023468811575185016,0.05312205131617222,0
361,-0.062417758770843226,-0.044377537403928274,0.08982950738118566,-0.013768162890419107,0
362,0.048672892285059326,-0.05965353523467044,-0.04922689787114158,0.0026358523968507516,0
363,-0.014501154779784907,0.011792306261006491,0.014661099118565724,0.053616717069740825,0
364,0.03873548369921093,0.051252045806408464,-0.03210141105285577,-0.0015711984105378132,0
365,-0.04406789051481047,-0.02362169068570677,-0.03492202156181519,0.06490819590133938,0
366,-0.02993479124734773,0.044109991520963704,-0.029686572771159537,-0.05980177278019516,0
367,-0.025083996248864742,0.05889017160283026,-0.09276452555999594,-0.00819187025449139,0
368,-0.08746771581974468,0.01652981620396813,0.02456503296929566,-0.037917176999721164,0
369,0.0182188276730912,-0.10957969813187626,-0.02485027109567785,-0.07929017703815124,0
370,-0.014072530810152402,0.01753794120973616,-0.038303419842687696,0.0270916011368384,0
371,0.03329599782894094,-0.01676315088767531,-0.05389332846468451,0.10798060266814281,0
372,-0.03603958569668974,-0.03735509569147205,0.027849990979591684,-0.04491821501380873,0
373,-0.0349308639107539,-0.06911468916979711,-0.03818396985663524,-0.00624999867781152,0
374,-0.03543069312150248,0.004312527567099045,0.007819145553870224,-0.07021611462580553,0
375,0.04034288892147548,0.009433208042414085,0.0014417897123723243,-0.07056729519285554,0
376,0.029186546496414372,-0.008258677647034574,-0.08629578453549588,0.06533096100537819,0
377,-0.012536783181500874,0.011685539300692346,0.06708556955016863,-0.019218752230099192,0
378,0.06694670015914804,0.0193735070451843,0.06855643435436111,0.06473894771322176,0
379,0.015661886792437945,0.01630635893124292,0.000890409208484423,0.018286317052815197,0
380,0.02542472323407528,0.006896091717253282,0.02890749350132422,-0.0801704400915373,0
381,0.05419244477435231,-0.028027935075704547,-0.0028708706330989615,-0.017327755456314455,0
382,0.03641940766309879,-0.013002554272277932,-0.09758383852007833,-0.015374980455517585,0
383,0.021519959745594775,0.05749259274278043,-0.005566990727360107,0.05080015126584065,0
384,-0.08162101140280463,-0.013905696807006715,-0.0046514718628100265,-0.030702158102891015,0
385,-0.0011199857999544618,-0.02557114808045812,0.005666214936608195,0.04997928971426479,0
386,0.045971204957174154,0.02689809238050197,0.03157955634053799,-0.0029332856062876276,0
387,0.050591873474886244,0.01628198982157963,-0.02464663752690972,-0.030028451486638102,0
388,0.03376465566467613,-0.07479792974403147,0.04684591199696618,-0.006811995888911732,0
389,0.05874245414128252,0.051064877579891754,0.022189781752137747,0.034501118100481,0
390,-0.05759653658776961,-0.02339477881361332,0.0011080252846903808,0.032633197736079964,0
391,0.03655022806334854,0.023043801507063363,0.004133140448097927,-0.08506233203364619,0
392,0.09393051246983927,-0.14321626940722987,0.05252479218660214,-0.01414033601653,0
393,0.09144115100243505,0.0050916612398085835,-0.049160735990567056,0.0525513432450444,0
394,-0.011357258501220756,0.00740755868534999,0.10824285246031054,-0.020589053268837847,0
395,-0.030362504401945458,-0.00893972564121198,-0.03174354088626344,-0.039016963373232634,0
396,-0.042474620965458065,0.030256272449109303,0.0486636474938063,-0.0261078856679371,0
397,0.08099278256452401,0.012988848825902156,-0.037865335433211564,0.0016706036956503183,0
398,0.06151749059288316,0.0008769604494772028,0.027229294243679484,0.036319458362184205,0
399,0.04197173832336703,0.01307719157479035,0.07731643547841291,-0.02440393494724325,0
400,0.2932542618642806,0.11561366265700981,0.15919925123904466,0.10118328458970119,0
401,0.3232469788891468,0.3676060369110142,0.2497184710232313,0.18866537452281174,0
402,0.6103683259390402,0.7509246730423447,0.5086452710822795,0.5522729278965588,0
403,0.9928438413307309,1.089836274973978,1.052388897958187,1.0035802934546134,0
404,1.7558764337060877,1.6745137102251078,1.670746447763265,1.7274873627101395,0
405,2.5851670199121752,2.4900036392006824,2.573263429453879,2.509219774572102,0
406,3.5703014364830405,3.501000360127745,3.5314218357141822,3.508240403107219,0
407,4.681529350972426,4.605643003008999,4.643122531258064,4.610781794535928,0
408,5.61398256381417,5.661824870143662,5.604069627668679,5.622250556567916,0
409,6.462435779754224,6.5258269688307955,6.516372695183602,6.442148781263975,0
410,6.913110183708983,7.010504602125899,6.921516763202457,6.984544598685119,0
411,6.842822675802712,6.847323858824118,6.771820762519977,6.9275161015539,0
412,6.152095486560691,6.11728140349536,6.180265320811178,6.1054866402670385,0
413,4.919290895390098,4.914428735895816,4.9338507329273815,4.886693117336179,0
414,3.2727089576749266,3.3741337687061534,3.300825175969472,3.3195817485793095,0
415,1.5166153855857336,1.4776492236672125,1.5728364794889897,1.522900781605968,0
416,-0.3299333618802335,-0.4243087627335244,-0.24958112040635985,-0.24240016435842848,0
417,-1.7672455787698755,-1.7725534046119575,-1.8543885873714232,-1.7851515051024183,0
418,-2.652511840248159,-2.8159119389717855,-2.773213278162154,-2.783757391789117,0
419,-2.960964122264569,-2.984140046337968,-3.061213065941461,-3.0348597888790994,0
420,-2.7043494287158727,-2.7835524485430945,-2.6523799875763916,-2.618065013650545,0
421,-1.9813526749672816,-1.959598463926116,-1.988678431009538,-2.0349680538371775,0
422,-0.8741658187499284,-0.8510890767144687,-0.8958084030671888,-0.8805127495853674,0
423,0.15608682222277936,0.1558853603287615,0.18298159623264185,0.1170856598080541,0
424,1.1627091361473543,1.0490425170200086,1.0518259081471188,1.1349855753122042,0
425,1.5294123723850033,1.4082747912503448,1.4215337579835234,1.45089086682173,0
426,1.5521782226386398,1.5834859389121487,1.6115156727758946,1.5765938686756757,0
427,1.2245565361419288,1.311834209685042,1.2195658223789025,1.388435616625337,0
428,0.6978974596753201,0.7817227080129172,0.7649337327599512,0.7906686413738646,0
429,0.10062745975026768,0.298607320451406,0.1695901389667147,0.036236491840697854,0
430,-0.34538400757063115,-0.4347926173576046,-0.4517684636775365,-0.3576728437292336,0
431,-0.6569959902037952,-0.6988058078087043,-0.7675710134010828,-0.6793732447626084,0
432,-0.7669873530574851,-0.9117092802145671,-0.753288282851389,-0.7505328865020381,0
433,-0.5397457682020164,-0.5573564948445213,-0.5416882914132284,-0.6229620281875695,0
434,-0.4849018335992196,-0.39797042212835826,-0.4261401452244834,-0.44754590349326256,0
435,-0.10729765334667637,-0.06457814359271516,-0.00953690969952889,-0.04264781182391181,0
436,0.16813746028714402,0.08190358489698982,0.22798187797288666,0.18218123350872473,0
437,0.28331266414415957,0.2653383540135613,0.24740767713313983,0.2835816546816506,0
438,0.33510414105315534,0.3874273792839513,0.429765780413093,0.31903557201316335,0
439,0.2353892736892007,0.3145891251893422,0.307260892893034,0.3281083377381466,0
440,0.04369376222791496,0.16762789255319088,0.12016689871260919,0.12703374773916912,0
441,0.06019774660344645,-0.03774469811709782,0.0426761528453187,-0.03500312948796503,0
442,-0.13474979787693397,0.029725442889272286,-0.06714067079167102,0.03695422540748171,0
443,-0.09951296228005406,-0.09416551599672952,-0.04705237042631744,-0.0937785420093486,0
444,-0.06918316608662854,-0.00013754244106062297,-0.016361372886165182,-0.13238206766445795,0
445,-0.0674619104219106,-0.03402345693921883,-0.15925655134104943,-0.14958106162566218,0
446,0.011360155432905167,-0.10045458683841474,-0.07264903720405402,-0.0996031340967256,0
447,-0.06104899398259936,0.027015422881736115,-0.014375280878387074,0.018202148480261766,0
448,-0.008198432060360944,0.04018834123153549,0.03384416224348735,-0.03124475832560328,0
449,0.045393749252515776,0.04874091509438167,0.03159500055579174,0.022947432947225205,0
450,0.08355922677387018,0.020483042699203115,0.07178869451489407,0.11240593422652773,0
451,-0.06818905793505677,0.0030616649774929915,0.08183715519642497,0.0441268100103402,0
452,0.01739439519211604,-0.031960720270154695,0.05987493649417357,0.06783212649659504,0
453,-0.09398388127841488,0.0058823979053003825,0.05259966640234854,0.0678317128298062,0
454,-0.004891628461425455,0.04653898198219838,-0.010511061799666571,-0.04749836477752821,0
455,-0.059861014554622255,-0.041426766261037376,0.02556030057496548,0.018720141889094113,0
456,-0.005901100845551103,-0.0467464860227936,0.032601083906057135,-0.06643819669625817,0
457,-0.07342133971006855,-0.002058865116997476,-0.052199356726857646,-0.010582156167485427,0
458,-0.10436130117870816,-0.029777150207908998,-0.08167734598677934,-0.03871450845521825,0
459,-0.028021058359025915,-0.049419060507872224,0.08995835099694752,-0.15303675671553832,0
460,0.025319543192509505,0.04423467860116039,-0.009435896709935936,-0.019213134366589047,0
461,-0.07199537442133175,-0.07096649333242805,0.05128228372721721,0.04636556508635743,0
462,-0.03820037313346281,-0.029026732522647116,0.00800639572033548,-0.07842169969070133,0
463,-0.11241479242640232,0.03795758215043779,0.06612811126073723,0.04553244781945309,0
464,-0.0018028360232917782,0.07796017821884436,-0.028288621018726166,0.013277407874837263,0
465,0.08193770961572672,-0.025159851957171502,-0.05774850615191342,-0.07752942182544523,0
466,0.004350491174213356,0.01834596320335224,0.033446276750879626,0.02805245023793024,0
467,0.11897768339930921,-0.07080863173643201,0.040384343525055405,-0.051821781479070426,0
468,0.058582648747834996,-0.042567297529954556,-0.04235057753962448,-0.014515424034819712,0
469,-0.0487785363047658,0.005474918402363709,-0.00244490915322855,0.03827404249622174,0
470,-0.06274369367373384,0.06447370734440362,-0.01910763596231918,0.010257338018338159,0
471,-0.006745190665330591,0.007120947917485967,0.0599980632808053,0.012059146688393276,0
472,-0.03194013925251073,0.08316260014835417,0.04493983458261661,-0.007838664731446858,0
473,0.04083769064010403,-0.07986261282614414,0.06021249510937284,-0.027659173566492442,0
474,0.02869257734788441,-0.10301565658924423,-0.011642935818173137,0.055005139261305167,0
475,-0.03785940514484036,0.04208356421890485,-0.023699160651967463,-0.06105333983339919,0
476,-0.10640469670976206,0.002363241562578021,-0.12210294532826531,0.03289660569992516,0
477,0.031316632656215516,0.02648410523638835,-0.024727531160302314,-0.09017000951453001,0
478,-0.027963425703001026,0.011087271342408729,-0.02556683571665658,-0.018445187562262728,0
479,0.03904914109925542,0.015649367824059908,-0.004918582308954693,-0.06805441050202982,0
480,-0.05610306066161221,-0.035899257613088376,0.04022496185461463,-0.03981019893055691,0
481,0.00513398233300021,-0.03447675479836932,0.0792302801008595,-0.004838931005184182,0
482,0.0265159381922761,-0.013085350503216027,0.06561069055492516,-0.05737481931083636,0
483,-0.011631353713796973,-0.005115336703496368,-0.04627516022974094,-0.021442035941960876,0
484,-0.026832588322737997,0.07211244491622634,0.07109435935361354,-0.0366660931304418,0
485,0.008948507165570595,-0.05656813832630802,0.04432936433506537,-0.02027535421065794,0
486,0.03961498339363474,0.00598494195563866,0.06017841119260553,-0.018051241660666014,0
487,0.035444256768038175,-0.07418591974193282,-0.01164233006331598,-0.1029707654990426,0
488,-0.05341134432054297,0.053182834336693574,0.037035466681497334,0.061405947075805704,0
489,0.0015110936950841623,-0.11319385791565602,-0.013046491183833366,-0.005096976963042475,0
490,0.1317602988442608,-0.009290627883346045,0.02521013269859853,-0.06219625818386141,0
491,-0.018371495919697077,0.01631310452577194,-0.08672891219569737,-0.058638970219537886,0
492,0.02707390529256828,-0.005848706783173594,0.0249044869784679,-0.008761500763474159,0
493,-0.03597095714257586,-0.035181575014596164,0.10100393720433548,0.027389842233872867,0
494,-0.0018895744609970255,-0.01525450824126318,-0.011756134936508476,0.09257476708108281,0
495,-0.021631384574422652,-0.051237546815997674,0.0268526467005065,-0.028250835332619358,0
496,0.0033920438618549008,0.015353465369645929,0.030134904091937732,-0.033450344506796244,0
497,-0.026460481869906544,-0.0772514980221363,-0.044385640364777476,-0.03730108127963776,0
498,-0.10779105413480851,0.06916091916256369,0.06432782824144448,-0.0579845650623206,0
499,0.058882599222794575,0.11467224859496684,-0.08620847174721034,-0.053052484008536696,0
500,0.05072615649420402,0.0954694526937488,0.11279549338852084,0.14502045490017446,0
501,0.19291523203842473,0.3388385209912155,0.2387892675830004,0.17698677481964542,0
502,0.48829657993733955,0.44373648579603225,0.4830367473541593,0.5121105591074319,0
503,0.8728185862174048,0.8470737126475137,0.9603709546595995,0.8352204056855336,0
504,1.428839064385418,1.434747799854649,1.481710806869762,1.46715227579922,0
505,2.314881605181502,2.2753506534062633,2.3495127946895074,2.3085864194707795,0
506,3.3398660363653563,3.274786857743786,3.417551724366796,3.2591436846689885,0
507,4.37908894719776,4.341665206529717,4.38111599097212,4.436407904883783,0
508,5.441152583647228,5.462410038846045,5.4269549243192765,5.448193280360572,0
509,6.335159135200024,6.235611973218556,6.227536289826307,6.299094069384968,0
510,6.942570534401407,6.888273663365541,6.848490269898688,6.863936833024464,0
511,6.892545320609623,6.901187318748156,7.022881837711391,6.955772638865924,0
512,6.476865970779766,6.371685852969352,6.3062687599015055,6.351849114624822,0
513,5.233571661563881,5.335092995091062,5.366161520757313,5.192451057710424,0
514,3.670313784937864,3.7406887970057574,3.7817846946808023,3.696239738963954,0
515,1.972539686350982,1.9045332422065882,1.9098211846653241,1.933153471544429,0
516,0.17555861146083848,0.08949805878902083,0.019907360775944252,0.07191657554545,0
517,-1.461534600179974,-1.491747079143842,-1.460304861998359,-1.5140597406065255,0
518,-2.4978624539343475,-2.530328379874388,-2.631024726363004,-2.6363505047551543,0
519,-3.0448315397019896,-2.96977251346597,-3.0061768477478905,-3.0081260431748595,0
520,-2.746786416927677,-2.7327115020991615,-2.756253120094168,-2.7764644082249204,0
521,-2.174491307017386,-2.167452211408788,-2.0963963035997093,-2.1023540814377633,0
522,-1.1664641658782655,-1.2250247899905804,-1.1481411179274839,-1.1798830286882758,0
523,0.007841362420590928,0.02587658674894093,-0.051941703387001145,-0.12240188754240264,0
524,0.8934885638834533,0.8947993362659515,0.8406885265882854,0.8942032008200543,0
525,1.4438021719050254,1.4321865183445952,1.3975322360165046,1.4355785589262116,0
526,1.5865396175987259,1.565308463135993,1.6366409836748945,1.5902272480968989,0
527,1.336698683321594,1.3787314067066723,1.3795115540976253,1.2773648190458886,0
528,0.942183241742764,0.8458079661543562,0.8211006403140506,0.8511464757001542,0
529,0.35136035782838193,0.30232756844092235,0.28220501092658234,0.26924165157639623,0
530,-0.3006052402969269,-0.2715463579671502,-0.33708700942268405,-0.2823768861378398,0
531,-0.6731186837013908,-0.6760918628071413,-0.8169714043242905,-0.672885896668536,0
532,-0.7423124186675717,-0.811919855043359,-0.7694244494680087,-0.7197498187302478,0
533,-0.6584459444410574,-0.7687703418446266,-0.6806879917837488,-0.8024498229456208,0
534,-0.5395202682471264,-0.4461921337319049,-0.4443433914993866,-0.545747640490138,0
535,-0.19980928519556215,-0.1810648988905395,-0.18701661395531757,-0.13542140271085967,0
536,0.17625758220563587,0.04275834649173286,0.018077512753384276,0.03566604181864936,0
537,0.2582994567971484,0.20099693373264638,0.2493061678349412,0.20231230355389798,0
538,0.28466722715974563,0.31890418892689937,0.3699152050756873,0.34942419161851573,0
539,0.3152822362028976,0.3615532487474976,0.2427025749130967,0.33360728085058855,0
540,0.22419240369502216,0.1571500236940062,0.15532427894232373,0.1808973262060782,0
541,0.06296371933756982,0.003239204412904581,0.06447217548390828,0.02595088655672384,0
542,0.028976607366393438,-0.030771153477351793,-0.1097253725501568,0.004834883410118604,0
543,-0.018257193610592484,-0.09321225277798934,-0.11985154823043635,-0.05111380250346759,0
544,-0.10297185442434008,-0.1589250455220364,-0.069027007768098,-0.10275532370876365,0
545,-0.17545907185370796,-0.13975171834980327,-0.11453772358434193,-0.0477988480159429,0
546,-0.092140869379553,-0.019784213162525995,0.05269487053487966,-0.09370395762583969,0
547,-0.11163606526672237,-0.02713916409591339,-0.058792815189384756,-0.03138172213001464,0
548,-0.05877842572066305,-0.014976880822618263,0.017008548207588736,-0.044231756229294844,0
549,0.04828595348182061,-0.02834085258063252,0.06027893496392122,0.040960537339201825,0
550,-0.013988238683333341,0.08351453467807449,0.09111346793911339,0.06576832079156233,0
551,0.07321590217435248,0.04190953076273114,0.020917586440239062,0.034015148790595626,0
552,-0.04092593959126335,-0.025989692835473505,-0.009615775060559564,0.0001296176136112298,0
553,-0.015046777715940688,-0.013780219237490158,0.03732775330596102,0.06552869776000013,0
554,-0.020851067683199276,-0.012450419330175565,-0.013286303258066567,-0.05331174666008834,0
555,-0.039477726048513455,-0.009378083147291334,-0.14801619065138938,-0.039613369890395704,0
556,0.05956582574367546,-0.06351226845110194,-0.0158125993660689,0.008013177817241654,0
557,0.024706187095630838,-0.048504294378816794,0.03135568717818692,-0.02534085043628931,0
558,0.00741349138228845,-0.03594168011615214,-0.01568597219599286,0.0715243753792294,0
559,-0.025121869103461796,-0.09887938178166597,0.01922482607641942,-0.06232065661211526,0
560,0.01140742830260792,0.05837705352398607,0.014003272442119926,0.0635940425331517,0
561,-0.0090488261592662,0.014174860436881927,0.004827562081717916,-0.042762265924746766,0
562,-0.006811873788586846,-0.005949903904673715,-0.06028259935479893,0.017763986610215617,0
563,-0.05199959561526381,0.0018164720531641473,0.016207782266810696,0.09869312984331742,0
564,-0.0001438202013055723,0.0748665116263849,0.01839447906462333,-0.0779806181612401,0
565,0.12479913933152993,0.008526155363405811,0.020214579378122554,-0.028688837828485778,0
566,-0.04575699778937801,0.06203466593641754,0.06002439723847064,0.019658176255838326,0
567,0.03973300825747406,0.0044231476107518845,-0.03248030634606167,0.019021993594096058,0
568,0.06618619966037194,-0.05106052499129441,-0.03293432460853759,0.023975299750950786,0
569,0.09708960247137058,-0.09211853721585399,-0.0013846402359664735,-0.028262305845818854,0
570,0.06918533648840634,-0.09336941316044492,0.024495965149506995,0.07355624407843132,0
571,0.10044377035368392,-0.030594991410667047,0.07890432370424785,0.05549691119577206,0
572,0.028022255908002572,-0.030560269084002976,0.04798729511958291,0.02957259840113288,0
573,-0.07528458674629965,0.05774769024783852,-0.022270129339916934,0.028023469510014345,0
574,0.049724500949504515,-0.015132491989750044,0.0023648541075256204,0.02195345484485266,0
575,-0.00362580420763184,-0.014769724073891686,-0.03817810806629884,0.10358041919409781,0
576,0.037336522400956806,0.028399589014146184,0.02587129423803041,-0.04057915822142417,0
577,0.06869383944377082,0.052944187182205144,-0.07201571944590698,0.03748171948990043,0
578,0.09119679039789245,-0.030452710370393266,-0.03612873629891037,0.12615196860489475,0
579,0.08810096939801607,0.0036543254094974185,-0.021579818118602434,-0.015284773243499236,0
580,0.08998691591567629,0.028002232033567956,-0.05210844771122555,0.07066810743064249,0
581,-0.048136428297583626,-0.0820270467922009,-0.011293576651090544,0.10850034099515742,0
582,-0.018370331897564155,0.05496051726267627,-0.08898124460203019,0.0020233049243975672,0
583,-0.02775879790297956,-0.02630731070087638,-0.03350660352794023,0.05451258027381268,0
584,0.09681099149325331,-0.04972035693926722,-0.05774671575634586,0.047827930298009844,0
585,-0.014448883795797837,0.004200951350511346,-0.15432014190095228,-0.02174726015431538,0
586,-0.03809760131965372,0.020150010664087996,-0.0190641371473392,0.06440857321846688,0
587,-0.0030558282302099444,0.04885394228147943,0.004037812660151048,-0.0027282686589127753,0
588,0.04770048241190003,-0.06721054758211442,-0.0031771914780782144,-0.0071307931198423685,0
589,0.12175979266618674,0.02186267938134833,-0.04186381013075742,-0.0421812081148561,0
590,0.008972686693931529,-0.008766237589882432,-0.022234584020376813,-0.08910773733263304,0
591,0.07804213019301955,-0.01399725496788007,-0.0008623949567444347,-0.07177253105433368,0
592,-0.03698994335336438,0.025526967208839648,-0.03082774070450453,-0.020662664515991233,0
593,-0.05611181168049233,0.07417654160608915,0.0037391188393447027,-0.07984176382533992,0
594,0.04093384788412507,-0.003740608241688104,-0.0036844803758748854,0.024729394324652147,0
595,0.03806900448083833,-0.039185048761000006,-0.07152201218614121,-0.05267396731648835,0
596,-0.009350660888272867,-0.10419446262931713,0.05361904086266011,0.035385716834636975,0
597,-0.06827652830911961,-0.013122401056186849,0.024110130763367058,-0.05674511171748579,0
598,-0.018687537307202885,0.03555783828338113,0.00421527646364935,0.04365337907323988,0
599,-0.009984429839361427,0.14344918609057528,-0.14012139797860954,-0.016146308324086974,0
600,0.10438623292749534,0.048217478529804486,0.13565519041316804,0.10577763831309858,0
601,0.2915974261719768,0.14992246824171135,0.24504563467073798,0.2676697910283448,0
602,0.3439261834544307,0.4522753845481194,0.36824825464234956,0.4933801117939513,0
603,0.7382290647237528,0.7911858285512852,0.7177361122834921,0.771321874012543,0
604,1.370967336561546,1.3684367778294808,1.3104307494466785,1.283036308415209,0
605,2.0740732621334788,2.0814765636507455,2.051092748012285,2.1398309034298006,0
606,3.1148079305380953,3.013276915065542,3.06920312031261,3.003530274341253,0
607,4.115736560291985,4.187117463819991,4.09858982378195,4.084292687709754,0
608,5.154117592964526,5.233631013777045,5.214958060681922,5.209767662100191,0
609,6.125370217663839,6.094974768370623,6.159850256440619,6.07520493124472,0
610,6.747258473627179,6.820023002891401,6.7551279916739615,6.7645122736562255,0
611,7.006507434982874,7.078633808085412,7.019099702669889,6.934407182853782,0
612,6.555537463380321,6.561404924506288,6.576298942424736,6.584150254659792,0
613,5.669396953869567,5.592860132903892,5.553349348688895,5.598972686163285,0
614,4.151286823858946,4.219647120475459,4.084024408687303,4.1383121634556135,0
615,2.4353532228353787,2.3916022862640935,2.369506750449036,2.4288952063545297,0
616,0.4972402969349723,0.6208227911957849,0.5321091064685817,0.5084282406762712,0
617,-1.1773246446717527,-1.1537842046517137,-1.1205900931390762,-1.1677291644239596,0
618,-2.403746244337098,-2.4144252859475053,-2.448212326181664,-2.4455403956951605,0
619,-2.923821478924253,-2.8769906945056913,-3.0049814205137264,-2.9269523591955156,0
620,-2.833838180711794,-2.8907371951888305,-2.9147936306169426,-2.898492253682496,0
621,-2.3985030451333116,-2.2053545634846397,-2.299382933156371,-2.3369503764031734,0
622,-1.4546345754535592,-1.414003081747199,-1.3469443494732973,-1.4372087140454042,0
623,-0.29289249129822725,-0.2299067739999539,-0.2926913195786297,-0.2985319316538908,0
624,0.689177267618707,0.6548051169042887,0.6739514867141297,0.7291018081167486,0
625,1.4353667675019812,1.4571812734205898,1.287331238522712,1.4739164166967875,0
626,1.428827608292773,1.588945818779989,1.6290586152836666,1.5229071571146262,0
627,1.4667399024929457,1.4089715371719802,1.4069955510090555,1.5026586119987675,0
628,0.9518330987446154,1.032095779042702,1.0873383115401332,1.0713823800120947,0
629,0.36109490940753475,0.37744398069040497,0.5003947808906917,0.47177286873196167,0
630,-0.15836212242243364,-0.1193248729221125,-0.1762242103296292,-0.15724240710750048,0
631,-0.6042158714621242,-0.6389653313837657,-0.5307044531368418,-0.47974364470244046,0
632,-0.7093118628679306,-0.7934728824702687,-0.7502887571204133,-0.814430511229606,0
633,-0.7456527709947712,-0.8192512292669343,-0.7383837860958892,-0.7572113741421873,0
634,-0.5651715113398076,-0.5071178366043775,-0.5367565785220421,-0.6296044282599116,0
635,-0.26246938966410116,-0.24448199174434956,-0.31091025081556256,-0.2267044114406475,0
636,0.07680040013152775,-0.07693211643356432,0.019156020014673952,0.08746730605539516,0
637,0.18364162797797096,0.1878783758524911,0.14369463515242786,0.19168643972375593,0
638,0.38974097869426194,0.34749545730206977,0.33396517474762877,0.3474594083802827,0
639,0.31552773590864736,0.3349755076459288,0.33092071295209124,0.4124095677294005,0
640,0.17328648746797057,0.3515494113845318,0.23714419240024548,0.21428260027587195,0
641,0.11149090934883488,0.14712106607710537,0.06189924316262647,0.06015116372455922,0
642,-0.10385699138550031,0.03592979252927127,-0.0762083599968581,-0.03022766410600891,0
643,-0.056399614942761106,-0.05517337477346684,-0.036571396753051,-0.10575516649231567,0
644,-0.03530067756399938,-0.1363514213296904,-0.013496706753456628,-0.05787614065082561,0
645,-0.16573923179285024,-0.15198139461520568,-0.044539682775862635,-0.09112157861746102,0
646,-0.05894006976100471,-0.0848235664065358,-0.04999663525325014,-0.08822465518340865,0
647,-0.031125674465920714,0.0034667506274412563,-0.06965435771411804,-0.0560104259048189,0
648,-0.09998776876555084,0.03057594939471693,0.0649424911908407,0.009100138227454323,0
649,0.042828381578212886,0.03511961868231148,-0.033439473386191645,0.026636725132158912,0
650,0.08800112936346499,0.023199310040785723,0.060487547901207916,0.02479581960254975,0
651,-0.0025449031962991586,-0.043795812014169336,0.02493181521655806,-0.05001742890831659,0
652,0.013945649133936425,0.0202923432324498,-0.04646529237526826,0.00793798254529667,0
653,0.008757501857366297,-0.009124595823821642,0.006884102022321196,-0.013953605530921308,0
654,0.03949012650195699,0.018486312788612427,-0.01383377281176773,-0.01905128924981121,0
655,-0.009264814236325036,-0.03905174566981957,0.07988736321259499,0.002356559923326453,0
656,0.06820624518394947,-0.06974725174126471,-0.08163248393493532,-0.0007480269722169829,0
657,0.044754342361425406,-0.015826711139718702,-0.0358437697602741,-0.11447056509490437,0
658,0.022429427397711504,-0.002369415394256706,0.02178740920010646,-0.05039375417070096,0
659,-0.026918744910276262,0.058044195430651334,-0.04687713808066075,0.08875570439867383,0
660,-0.018959739438837594,0.03068781069364866,-0.02324624517610381,-0.029553295242134008,0
661,0.01652366908448766,0.00888047121687848,-0.06949249772003922,0.0016196555349062757,0
662,0.013513154934102252,0.006449790070426772,-0.022383560593111286,0.01770919849030101,0
663,0.05647178253514077,-0.07259225611523984,0.06684029410085986,0.019877656467446814,0
664,0.04028810168759061,0.035595195943906206,0.03188700391981607,0.06178956019533978,0
665,-0.006567023976324925,0.038388909379569826,-0.0921546369939952,0.07489152359770654,0
666,-0.07948342167552765,0.09682658786853492,0.013706535587290404,0.010734420964744779,0
667,0.04677877356723071,-0.022683645882112795,-0.013802308351670277,0.11048314908156504,0
668,-0.01959441319012472,0.021333958784325167,-0.018573630440489305,0.13089882017622456,0
669,-0.10014987375934355,0.02090225897697015,0.017584829574632702,-0.11111528552964911,0
670,0.012273652592204377,-0.03343973557361847,-0.004231685527403066,-0.14435000812384438,0
671,-0.03688611598129179,-0.047967760314119694,-0.06667420392764768,-0.012630821776103203,0
672,0.03071967499492715,-0.002678076594368177,-0.08760858309886146,0.04743545039676076,0
673,-0.08013959240800424,0.03181875193532049,0.036119769586776075,0.013590428674142575,0
674,0.03119042111680669,0.022076237739987667,-0.04227414181234071,-0.006636602896383238,0
675,0.07827412905541117,0.04412714945095699,0.002599025164249982,-0.044149857732105495,0
676,-0.022453830705967022,-0.12217647460498146,-0.01620098932439735,0.03478610882749633,0
677,0.0615241424246885,0.03258739848249427,-0.025879736623508773,-0.01837062702723939,0
678,0.00573120123419508,0.03113266820071908,-0.00042487595444455867,0.05878009642168323,0
679,0.05536549182717543,-0.034207059469522565,0.07354869730186799,0.06918912754066754,0
680,0.03323306972301997,0.009271632091797733,0.04342211786338741,-0.03493274439322414,0
681,0.04522601032367717,0.06779721375253873,0.011040281545894247,0.015417794952123568,0
682,-0.045295240499124,0.022165126504442516,0.03366197586692765,-0.023000933405198012,0
683,-0.0026847460593997195,0.02226247984157972,-0.04292575532854348,0.027047289465351565,0
684,-0.05595198525149971,-0.0553291751377359,-0.06439156543691929,0.03746326147650412,0
685,0.07628765529621039,-0.023629637046822045,0.007585018844192797,0.06894479842027673,0
686,-0.0762934419350372,0.062313600501333874,0.00771254151134424,0.05628881511621165,0
687,-0.03418082102758808,0.02084313242771938,-0.06845845873405337,-0.02229152052073126,0
688,-0.0017776559781907874,-0.048564464222332085,0.021377238201015437,0.11107804690704863,0
689,0.005729857803314995,-0.004285797327368687,0.06974266960073633,0.003355583388432783,0
690,0.07250800374052278,-0.09929508607464409,0.06382359481549281,0.03481035139595198,0
691,0.050878547480693835,0.08452599828712387,-0.03365674905620576,0.06120784980561799,0
692,0.058752715171613075,0.09110054114580772,-0.018655927904157703,0.043989734258190576,0
693,-0.044041157751391814,0.08723733425592678,-0.08446318806579538,0.04251496321195162,0
694,0.001842685813603833,0.03443617838261961,-0.014134110939392007,-0.058170979495435544,0
695,0.014668232121882306,-0.009675969150907807,0.10983049679549263,0.04425839443921665,0
696,-0.1120489109698037,-0.013134712711800414,0.08083766571987012,0.037088558369051484,0
697,-0.0777308374285597,0.02999185011377428,-0.05513895762324211,-0.013698420491806532,0
698,-0.1275135660911671,0.027036642983618325,-0.14146458327812117,0.038870546442043935,0
699,-0.010135612864384245,0.006277098855078064,-0.06472964004974936,0.043904753021078824,0
700,0.018415794670220344,0.014753667634536227,0.05067160361115407,0.03295550998150584,0
701,0.1883001251175394,0.12355656834608394,0.19121339913495802,0.09295998791084316,0
702,0.31346992091557696,0.44168371861101197,0.3797645130671303,0.31951671733500475,0
703,0.7011124734473176,0.7354627847098266,0.6128638298129273,0.6660203602035112,0
704,1.1665572469577201,1.2001135986362534,1.2198237423139742,1.2792827726502987,0
705,1.913352813238046,1.9414940294659069,1.9259127566373022,1.883329321653005,0
706,2.8118843476060316,2.8249921001333096,2.821596389935481,2.7853955214729047,0
707,3.817983356240635,3.841882999504586,3.9002750862812263,3.8344192906064962,0
708,5.036436584660973,4.871390613162934,4.998615999097743,4.901218856684529,0
709,6.005040476417037,6.048925141601808,5.8603294373476995,5.914658832762679,0
710,6.689114860945416,6.5956238192523715,6.647536776865377,6.661768511091948,0
711,7.082757145640729,6.932997877240867,6.922310088994297,6.942584913576763,0
712,6.6950818989409955,6.733024897920381,6.7247874295931584,6.719917336405546,0
713,5.88480366201774,5.862744963495948,5.857493846041915,5.80122934790141,0
714,4.513602667507738,4.508313302383688,4.47038781210553,4.493065122360102,0
715,2.8943684824529723,2.8635125214511663,2.8645597330212,2.7713540003062698,0
716,0.9699943314492416,0.9626474944261472,0.9030146408846923,0.9196254540594467,0
717,-0.7570238680719731,-0.7919332827199905,-0.7333869061941635,-0.6948056406994927,0
718,-2.0913652265640907,-2.017572597748828,-2.1113401502890734,-2.140490657783614,0
719,-2.855528005266383,-2.8777488081826483,-2.9555764887790272,-2.802290457406194,0
720,-3.0552776092513896,-3.032669273838709,-3.0049905958601557,-2.889300927045963,0
721,-2.541114837958717,-2.4640787971602416,-2.4279786546909694,-2.5299876697485604,0
722,-1.6342433427317764,-1.68140886484358,-1.5997793018964295,-1.6798409519480226,0
723,-0.586925284893865,-0.5634652068998416,-0.49551268909411006,-0.6342255573755053,0
724,0.40594146739392156,0.5504035984682031,0.452380352108891,0.5960614420861422,0
725,1.1861433833131494,1.2925172602309072,1.1625416834641293,1.2576038197901267,0
726,1.4689514233858239,1.5934851538977433,1.609106247676444,1.5587246629953897,0
727,1.4939924254957313,1.5039168013148279,1.4641794278649054,1.4696763320020703,0
728,1.105724451362697,1.2044251227368215,1.0821017420331742,1.121626073254946,0
729,0.573556908807252,0.5208753287385812,0.5434424547496177,0.6735904880012334,0
730,0.03961964516811279,-0.03478679418463097,0.02918621064964429,-0.010760014578581924,0
731,-0.45519828159240666,-0.467328362736196,-0.4143116643944451,-0.5064319111486983,0
732,-0.7162613441015871,-0.7709451207108194,-0.8803018339252598,-0.6772839153063843,0
733,-0.7740015085273686,-0.7776212998994423,-0.7033366323289638,-0.6591504429506312,0
734,-0.4772876157336422,-0.5382068609568653,-0.4881222859162385,-0.43190582918064613,0
735,-0.33702920109908074,-0.28324907181357184,-0.3841018101309526,-0.33376460232663124,0
736,-0.019878029804638472,-0.08359277815815488,-0.030993356646890076,-0.005892798965910516,0
737,0.16612971146342492,0.17045150382374177,0.2651477748217933,0.1610901765405897,0
738,0.26366120757938716,0.2697404325309383,0.3800674015632281,0.3006846149355211,0
739,0.42572998489304525,0.26214609274085704,0.3710603586479759,0.34767958295807383,0
740,0.2821141129322268,0.20175985572335467,0.24939462790881314,0.30809950639564176,0
741,0.12418440559157803,0.21760623458670142,0.140812744844672,0.09749847136378267,0
742,-0.0180249418084021,0.04463149990998787,0.03515482148890273,0.04527286102094559,0
743,-0.10719871172231392,0.0019388720268930792,-0.10122714486805598,-0.05991393188603484,0
744,-0.0851937338205601,-0.06929491865139825,-0.14520271138103083,-0.1202022152948763,0
745,-0.08438415988774277,0.02892547139956074,-0.08873789034201462,-0.15805960497647778,0
746,-0.10252022037543945,-0.1609623877837144,-0.11705160668340522,-0.000976886295527557,0
747,-0.014494986558228003,-0.04156391475028476,0.01499027398701621,-0.08329143318982532,0
748,-0.04205523284137729,-0.06236855475553595,-0.05509854130359466,0.026409587017000496,0
749,0.01941668910008685,0.03925148457778875,0.033788550183274715,0.04032750690147664,0
750,0.004860456243116866,0.09218399896749388,0.09329921525715276,0.08183651340644649,0
751,0.01809353012630785,-0.03026158894407325,0.05773427974759661,-0.03302311421125685,0
752,0.008971952836404708,0.030853355779665918,0.05286616224322013,0.06470721454363093,0
753,-0.03233414282865219,-0.04453309618066348,-0.06298810155775435,0.0600982661872243,0
754,0.021419751619372054,-0.013673655620470291,-0.028882409729609197,0.056153981527001656,0
755,0.043271700398564476,-0.013870910138121315,-0.06915610119616575,-0.05018985345577083,0
756,0.016953250401504187,-0.03197901655940861,0.06248534096320582,-0.04984421453559731,0
757,-0.03760515779235395,0.08240519779811967,0.030001305674595156,-0.007619545649540116,0
758,-0.005065196090419772,-0.019918293907361957,0.031242417847569818,-0.06355331521873908,0
759,-0.06800064399635763,0.05649843959389196,0.04354990359969302,-0.02096235120477214,0
760,0.029370651880436017,0.009476493919600069,-0.06463868282784184,-0.0008356531154015143,0
761,0.10040440981069602,-0.03645039687170978,0.0676555503651826,0.04504941658771702,0
762,-0.01743226167757862,0.04655538067237372,0.007639435431369307,-0.024638871404064126,0
763,0.030517812391906086,0.10813435038212903,0.01917242648515796,-0.011000190511988207,0
764,0.03247672149063912,-0.08536149576306294,-0.034420462790478244,0.018464285650443765,0
765,0.05453618131833838,-0.006544951360918287,0.033965576136526246,-0.11460864530424567,0
766,-0.025332662712578235,-0.07411477112744774,0.11304155985958333,-0.035479504730647704,0
767,0.0751140065571691,-0.0778346013908029,-0.03149740032781094,0.00889144594480106,0
768,-0.05448299843748538,-0.014734763828212283,0.024354358920111226,0.008323006892978683,0
769,0.03213269572066963,0.012482146582825926,0.05913077026580511,0.008805661901629406,0
770,0.021906467474194658,0.008357206604386562,0.05277157035258982,0.09742291703117499,0
771,0.04721072906571686,0.03126927324035013,-0.015886216485321316,0.04130807062813511,0
772,0.055947374988006275,0.05884233291971901,-0.0728128977472537,-0.015485864926443868,0
773,-0.023787117178887845,0.058925344012741764,-0.00860768652942698,-0.12353399353710212,0
774,0.010271579351488735,0.01147249987077606,-0.05263251701276715,0.01955938937949132,0
775,-0.05136321765209592,-0.02357731060580245,-0.008255345825516089,-0.06989339193455749,0
776,0.011828804923495187,0.08686585235445646,0.1021529796978047,-0.028813547703314443,0
777,-0.023848577002193908,0.09202505692685084,0.020917689907579244,-0.042761048088956345,0
778,-0.009388834805510749,-0.029144461257146852,-0.09818068103123034,-0.05202119854743352,0
779,0.061954615246763205,0.09685534222242655,-0.005015560745571697,-0.006380903037982425,0
780,0.0035100180533165844,-0.10496885993670892,-0.0601742935199715,-0.11021742301212233,0
781,-0.076848986965762,-0.05058531243336881,0.033552151706354325,0.12955515169693052,0
782,0.010228290165353815,-0.005343501061692929,-0.07948062763116003,0.004217551049072583,0
783,0.026321471670674865,-0.03553919649267061,0.007537327184464929,0.0066350531439938725,0
784,0.04097805025517887,-0.05828949631729859,0.023158817514509954,0.05475623967377149,0
785,0.026134829428158438,0.03147311877564722,-0.020723013336745765,-0.0327130019301699,0
786,0.06159969344461522,-0.0019206091357125688,-0.07217071744360881,0.05542238325639166,0
787,0.05405970220587414,0.0055450369713085125,-0.06557894313101609,-0.02749574106987226,0
788,0.027754222998216338,-0.10791266293794778,-0.03897404632578637,0.0026725171873182006,0
789,0.08538139569606172,-0.031234839411671114,0.10369499190915246,-0.07086732918763913,0
790,-0.010411346554267254,0.036721702506984526,0.04520325451140683,0.043987337137487835,0
791,-0.00894296934469452,0.04050164588084101,-0.04589701219285707,0.0749777292055091,0
792,0.008428484920597015,0.06518258810291676,-0.02885772807945939,0.01628200810717682,0
793,-0.05191601119423779,-0.01712942277944783,-0.013574726837416163,-0.05445518894353545,0
794,0.033292090522810576,0.0393332453246369,-0.12241508213501837,-0.028753293656352458,0
795,0.016871217284697187,-0.030007443487102273,0.09840343751108112,-0.020867299138965564,0
796,0.03776520455318807,0.015285645331064591,-0.04398298611726134,-0.05530568922844515,0
797,-0.013465822596037659,-0.0675829781775891,-0.08166883016509943,0.008603761400534244,0
798,-0.013238503944912796,-0.0031443735160666367,-0.12734523917891463,0.08542006633645756,0
799,-0.04497505643951789,-0.022437293389236564,-0.062406956222652694,0.02477178393250199,0
800,0.012351499048732121,0.027157712889450996,-0.06406869266981094,0.023792243772917436,0
801,0.06455632114666227,0.03438290948269078,0.0998046696756852,0.048837887197246715,0
802,0.3482662338436124,0.3219485941833557,0.35403457580748054,0.1927460313804781,0
803,0.5570008245352178,0.5262011071816379,0.5375595520084966,0.6821467757029289,0
804,1.10879763959517,1.0526934562079417,1.0948119405646537,1.0479827490742184,0
805,1.640257222917671,1.6816734096167374,1.7011018263470024,1.7351901708010509,0
806,2.6830757258476723,2.584542670672567,2.5761142553254452,2.6247234950178533,0
807,3.6130053961395916,3.6747585161281084,3.666959929586258,3.6214859544827616,0
808,4.701409894554383,4.697366292447505,4.564820549796075,4.649993316456135,0
809,5.708047274981407,5.682651126647763,5.789592920366778,5.721347719291349,0
810,6.475908916703754,6.563265398899635,6.427074939206157,6.60613038920436,0
811,6.927429200310419,6.811106758200627,6.983365729998188,6.862376092025496,0
812,6.954652049900644,6.832509933490071,6.805870766178133,6.907715880631771,0
813,6.082177041766248,6.051940124664357,6.1437678413619,6.121808157718107,0
814,4.845921256978084,4.91492481084656,4.855084772345993,4.809293695901321,0
815,3.2787007117069136,3.246011678933948,3.2222769926097006,3.1675141087607352,0
816,1.3310041641678354,1.4092111906160056,1.3993711632339705,1.416226494461766,0
817,-0.3712044484342141,-0.3468341737817472,-0.41226899468988887,-0.3231750837661674,0
818,-1.807733224898008,-1.959052765436862,-1.8444675575958873,-1.8999330071795026,0
819,-2.665779107002279,-2.773580620292343,-2.754166745178297,-2.8501601795010334,0
820,-3.1258533766240157,-3.0191115411943255,-3.0220949213021995,-3.0115786777731928,0
821,-2.629467517155239,-2.6946892633447157,-2.6187846232499057,-2.5897077284764243,0
822,-1.9469691616823284,-1.9500016493983519,-1.9325987205644373,-1.9178743608679916,0
823,-0.8819576194304115,-0.7630701855759853,-0.8630763576088575,-0.9212660444041645,0
824,0.2443457209093917,0.2913806283044998,0.26283239217557947,0.3351076773816347,0
825,1.1286579112624047,1.114113086635542,1.18076690537283,1.0984633238409607,0
826,1.4463310678703614,1.5601183823635922,1.582078849776683,1.5564870346849846,0
827,1.5255592806609848,1.5897507378414857,1.4944864742299946,1.52911938436603,0
828,1.2686275698013891,1.1536152027422872,1.202939249016219,1.247525178990429,0
829,0.7727535383774516,0.7029465043574032,0.6925592477978205,0.6954460793224747,0
830,0.19693968107787824,0.18559173450093852,0.03716535764732139,0.15824621546826112,0
831,-0.3240252139877512,-0.4210198449048679,-0.3827127214869831,-0.29801912317164325,0
832,-0.754556717789566,-0.7230415896322875,-0.6495171787944044,-0.6345307232965136,0
833,-0.7387069261269414,-0.776525143792758,-0.6973908653335301,-0.8364226293645418,0
834,-0.6957739315335442,-0.6467694675928026,-0.635636051479758,-0.6450948834094078,0
835,-0.39657048102835213,-0.3784659356176742,-0.3625876446095299,-0.4726728915905217,0
836,-0.07797401315654517,-0.09938268003910991,-0.07580943317441925,-0.11180512333050228,0
837,0.1251728973526713,0.14705116494775017,0.13850214026561014,0.15225867802517135,0
838,0.2755267354379498,0.2398133595385672,0.22417973464860075,0.3190426797282464,0
839,0.3045196583282545,0.24549335242716458,0.2687905264293119,0.3997526482710097,0
840,0.31760158688369117,0.3281030234597194,0.26216033788500626,0.2552915112102847,0
841,0.17607340665150203,0.17545497757903467,0.2782901052497296,0.15939281464692223,0
842,-0.005634454136312708,0.003983413274930736,0.047527975095091164,0.04875256075053175,0
843,0.056459716912238715,-0.04677763457157036,-0.08209198985752414,-0.02014200157965345,0
844,-0.10358732334031871,-0.18107472505864342,-0.07943693062985557,0.010906958647835446,0
845,-0.10700095105167762,-0.11103272879017764,-0.18352369854458517,-0.13697025639042965,0
846,-0.17345437947009598,-0.015356042241329873,-0.030118796359478464,-0.12632875482492487,0
847,-0.0400115333549829,-0.16324212781265193,-0.089377268104954,-0.17097903216638238,0
848,0.017741144127122875,-0.030762623505738912,0.007605749821520886,-0.010708375124543213,0
849,0.07903656479127812,-0.006326196438387249,-0.009415318808744393,-0.013561315247289773,0
850,0.02666967471217884,0.06415695832372267,-0.004980061634728319,0.024451239779177153,0
851,0.016262090867178856,-0.024724376032294975,0.004170207900444263,-0.03573970964020917,0
852,0.02282219717580542,0.06764989390052402,0.016003983521724482,-0.051827611934639445,0
853,0.03988149224350998,0.04324926274421096,0.02469034866701273,0.07332679700637745,0
854,-0.04919715174187445,-0.039591666668200035,0.03488283397729248,0.01059909465710033,0
855,0.03609692272949439,-0.06802327181993469,-0.03132624715781792,0.011837284704606828,0
856,0.005311866330418243,-0.0861803459907476,-0.0969735511440389,0.015257057978971497,0
857,0.014796830652884792,0.022331047060015992,0.021627584268348782,0.009882159755056266,0
858,0.001569112119265686,-0.035723614855182495,0.01630201998606261,-0.013447324514676066,0
859,0.0820869835596205,0.062408950014170086,0.02111258219887625,0.004736802136937032,0
860,0.08788972082709733,0.0499221465117159,-0.07023354321282818,-0.02070925071612381,0
861,-0.03531347064937891,-0.013653532860202778,-0.00401831308123584,-0.02292160260265329,0
862,-0.01188027335311042,0.01486794464766393,-0.0708067214467579,0.08292853781352577,0
863,0.13335517100850344,-0.07176675011023596,-0.04405992329806355,0.01943912277232146,0
864,-0.09053717510920063,0.019641071324779064,-0.026743667024948438,0.05406266373374982,0
865,-0.04829393203338898,-0.02819159879423633,0.021894067165119428,0.020371236225380677,0
866,0.021267710202085156,-0.04552158918535418,0.06181221814796924,-0.07156445054543346,0
867,-0.025673070398932858,0.004567559758874617,0.06807251726154462,-0.1581995169672804,0
868,0.06121912745410165,-0.05176659451127603,-0.045564945657405306,-0.08923255675104909,0
869,-0.005587343433256085,-0.13493473901680772,-0.06941108046912545,0.05861218757688507,0
870,0.036928121942368615,0.005060874466341742,-0.006485185772476021,0.022902789297850442,0
871,-0.07932235713466258,-0.044375455233339474,-0.026954545261322575,0.029361520492299276,0
872,0.008238767798009207,0.0904790950884231,-0.03219437434692165,0.03807620361159699,0
873,0.05750071543557486,0.01385497745437026,-0.018562051914259265,0.06047272916536303,0
874,-0.06169491684775644,0.007283419604916992,0.05847280097957696,-0.09029382894906604,0
875,0.011204754417880516,0.04115949178608385,0.016959530080756503,0.054594713753462955,0
876,0.02286805600736342,0.15703776337554254,-0.03548309173408999,0.05382440628605853,0
877,0.09573393389856613,0.09335605155616403,-0.019935384788691463,-0.05492450410969304,0
878,-0.008605428715714026,-0.05803944667791858,-0.06453416355269301,-0.0008453151566377324,0
879,-0.04137325999612884,-0.040416311984850024,0.03026287890546891,0.058268866494728996,0
880,0.055625030716878854,0.03601274158154758,0.0775024073763387,0.0626355732022795,0
881,0.025186023190351226,0.046023580453065246,0.031507831653534324,0.004397117895294525,0
882,0.009987160568138866,0.03734973935654324,0.030869952975722467,-0.06752496508331941,0
883,0.04475653113805893,-0.0067758051943852425,-0.08412132083466277,0.006710810697445762,0
884,-0.07789771925051658,0.08293424734517889,0.018033271921737235,0.03064427426387633,0
885,-0.014801292774572001,0.06746194251408753,0.021173389923762966,-0.015866422937080116,0
886,-0.09311075433255993,-0.05989736301705573,0.07110570350545865,-0.07803350601300733,0
887,-0.05916278052211052,0.008812763660601908,-0.00027848480927954774,-0.10906990400629141,0
888,0.031026272918171168,0.003799276465264581,-0.03599561323043036,-0.00435561084258625,0
889,-0.0396574022915842,0.055835192052730694,-0.1025072692842565,-0.04811670872890858,0
890,-0.03954329758614062,0.015518701927181444,0.01358735663687104,0.003434010014297767,0
891,-0.025905083434257865,0.0005552220201676583,0.10099179003148057,-0.02125238272835571,0
892,-0.016593271661734042,0.014503448114667701,0.00042367886095393177,-0.03943623397303327,0
893,0.001106438447214926,0.004729654197170605,-0.041343448499398076,-0.021231493340692326,0
894,-0.0037654016054036636,-0.007524654514876911,0.013258351654881984,-0.037744845152103405,0
895,0.008785094109049861,-0.09542070700491354,-0.07656357570901236,-0.11086369789154071,0
896,-0.08295227080940341,0.014543138906301042,0.060677832508321795,-0.002529140437317957,0
897,0.02829770070315807,-0.07957656559431375,-0.01860687161430328,0.034261339360960714,0
898,-0.03527578772067365,-0.028824814030832473,0.03455320551626151,-0.006414889194536257,0
899,0.044304686170767854,0.01197002530614861,0.0564461474542196,0.01523267809746635,0
900,-0.0460783776485095,-0.017568921062499993,-0.022286586202255917,0.0889645406667785,0
901,0.012006483937951853,0.13787968005211504,0.06238176353851685,0.10826986406054329,0
902,0.15196889124732088,0.2744616255690685,0.2377143182191475,0.2577956342321518,0
903,0.5340578098086333,0.46153500216542576,0.4922360395295653,0.38890201723619194,0
904,0.9095710955071431,0.9560693457271562,0.9985051150457033,0.9298623109318017,0
905,1.609058221055655,1.5486991630468063,1.5520505984827935,1.5643589169287644,0
906,2.4046177296224753,2.3565116647154483,2.4433676803357005,2.3581247926650475,0
907,3.339046178975201,3.3547176428259817,3.315824157026827,3.251723433350578,0
908,4.46916068195976,4.4158036819964845,4.426233271104697,4.500866661861758,0
909,5.455337148270129,5.5042454508149765,5.487725780746579,5.498686790178766,0
910,6.335043298441774,6.264032568466463,6.359584188488436,6.340403437735809,0
911,6.834948643307838,6.907011569823704,6.793891560140405,7.001399589643261,0
912,6.923537787826906,6.964441671196119,6.9794122458427035,6.910117049964519,0
913,6.34278215324419,6.258317200169771,6.3123634754247755,6.347932850718716,0
914,5.220482529780718,5.223264367477419,5.178424322260001,5.106378792564798,0
915,3.6749808665199324,3.7075866880427757,3.6421662545413853,3.6968825280396462,0
916,1.8918452855931116,1.9067171181557256,1.8971571406896113,1.8396020977615108,0
917,0.0249362753929616,0.03896741563908023,-0.07845463697251455,-0.058790661034129985,0
918,-1.565166119039405,-1.635895333416242,-1.5221674550180833,-1.5609587792892703,0
919,-2.653794886015492,-2.5691590655558434,-2.6872885181950936,-2.7438604646559175,0
920,-3.033313488316856,-2.9941102771104777,-2.9896829244695313,-3.04503894357027,0
921,-2.7301646901153536,-2.782198990800787,-2.7033098434198033,-2.8037743290520494,0
922,-2.0685200390302114,-2.1019119489016744,-2.0436128220645604,-2.136612374673529,0
923,-1.044912641750861,-1.1230726552708337,-1.0858273639041156,-1.1135542111126453,0
924,0.08178554843146438,0.00875827862992679,0.05100785111582795,-0.07412762183196242,0
925,0.9194554001461779,0.9010818067774423,0.8441470283871203,0.9604023497782836,0
926,1.5378624026183385,1.4322761882460122,1.4633163039438775,1.4929466689531923,0
927,1.5394068823812328,1.5302113658722332,1.5682708082656958,1.4840229616192935,0
928,1.3998310550768376,1.3586077595782011,1.22856958971001,1.2655250820294037,0
929,0.8267362960396628,0.7160119095675748,0.8572390745017477,0.8106722110715919,0
930,0.25091200297612104,0.26129207223254314,0.2581174559506666,0.36908338322938317,0
931,-0.25797291642154446,-0.3266794798297461,-0.25025165162278473,-0.21455411038579641,0
932,-0.6482135801588794,-0.6420767171677809,-0.7545424351460847,-0.5435081944887173,0
933,-0.8375437969884197,-0.9043692364101041,-0.6800904586864573,-0.7752265395713873,0
934,-0.7010831524704175,-0.66516147581867,-0.6884652649469731,-0.6863902811615001,0
935,-0.3857655725957472,-0.547334413425359,-0.47581538144269886,-0.521910337600453,0
936,-0.1245560710308728,-0.10404551411937482,-0.12304205650150518,-0.18285862381944534,0
937,0.043121248552642266,0.035648187342327206,0.15134645176785128,0.035498738465754145,0
938,0.29095871846617594,0.2914531239704738,0.24103438410552916,0.2821884776918395,0
939,0.3310084779116686,0.3065113147927993,0.2139088182240753,0.34975629084570187,0
940,0.2725867044050398,0.2865041352557893,0.20722885098012628,0.2462396246733791,0
941,0.15270152417803706,0.09446196009865268,0.2103769150419606,0.2416362997402035,0
942,0.001510984702159858,0.08574007356311969,0.09462700038958326,0.10056841416594908,0
943,-0.06754688671430252,0.02608606313081937,-0.02361113311580524,-0.016444384783738386,0
944,-0.13535474108043105,-0.03891182092011758,-0.1670207023207838,-0.1794312688850874,0
945,-0.15314796223888005,-0.12315268994227292,-0.02098345951636857,-0.13111195518331778,0
946,-0.03149289731960764,-0.05497815053897643,-0.10242912576764882,-0.08504693482882414,0
947,-0.008522716763042032,-0.03333379589347759,-0.0038755274706497936,8.399515570555599e-05,0
948,-0.04106984614462633,-0.05295994859609582,0.01732429193975252,-0.05096960037598061,0
949,0.10902969015562178,0.1085359217701254,0.06392541232054363,0.029738478182926832,0
950,0.08665822578977306,0.06636434733306729,-0.03815749709228037,-0.051267836930797124,0
951,0.06995470182299812,0.03693092168258811,-0.0651753447801432,0.05187966403302421,0
952,-0.03285173442306079,0.0011732381979856557,-0.04981712899804533,0.06350425613171409,0
953,-0.025498420204961215,0.036638618741960054,0.011240209398668667,0.02400515912494531,0
954,-0.008200658352561755,0.03886602813108755,0.004652944220445667,-0.030315908261356585,0
955,0.04605162057434554,0.06617615100639551,-0.022785641040544057,0.020563413630679653,0
956,-0.03129770234109039,-0.0024737063335842748,0.06223240242010415,0.025373655773812346,0
957,-0.04483650672826382,0.02810597412120539,-0.02304844314367105,0.018352786377372872,0
958,0.005690802537559346,0.028306549742045193,-0.03320088587266852,0.027853451801309787,0
959,-0.003299188085742344,-0.03984672116531781,-0.061959715236823296,0.008591510888460363,0
960,-0.012893838423392995,-0.014770000996383158,-0.017208454323295895,-0.009586600729400867,0
961,0.014641738727663937,-0.09852626955513763,0.044491305130220864,-0.030430224425033025,0
962,-0.013532548261744357,-0.043105222524273006,0.0017514322856222145,-0.02447301043977147,0
963,-0.034337397359749645,-0.07285608558165982,0.07470936139832168,-0.049157611634259475,0
964,-0.05763041760596423,0.06966602236912678,-0.01871939299753009,0.04919137817793679,0
965,-0.0007607706454862428,-0.038029184606248566,0.05363165763097929,0.051763329573619586,0
966,0.02098202395170989,-0.09564744667457331,-0.06761531645351897,-0.033129419812267656,0
967,0.0038077492490944794,0.015233066406619599,0.06690708653726228,0.02530394937051947,0
968,0.009959378064906233,-0.0190691320761257,-0.049159736419030355,-0.1022112986134915,0
969,0.02591298135821563,0.015631516736288924,0.015058902999868864,0.03375319290153727,0
970,0.027131918000532423,0.036985386711463036,0.04181866474660394,-0.07634873219498181,0
971,0.038060877895016984,-0.005004779127675089,0.033944641365425264,-0.05258537631555219,0
972,-0.0927202344528096,-0.01202809150362049,0.0030026210534459187,-0.050483286714905644,0
973,0.010747645780664776,0.019022851004830855,-0.0695602159464271,0.014362804831253012,0
974,0.0073644118815392986,-0.01854330786092856,-0.04849274565317162,-0.05324747698746278,0
975,0.003577026676127553,0.003941974915634795,-0.056699528416017615,0.017135150174353898,0
976,0.01061016596226724,0.098534955523686,-0.027983488563877813,0.06230058160213467,0
977,-0.009850643597035073,-0.0024952504472820192,-0.018139844750442023,-0.0019715980913325285,0
978,0.11518198957492176,0.01894331428684444,0.12275750700665644,0.02938044027545541,0
979,-0.013846259931160053,0.032582268489913746,-0.08003408031779043,0.014315770872576133,0
980,0.08986271735822023,0.045582320750959686,0.09469943696838412,-0.041100141086637995,0
981,0.02053860597441233,-0.01960936647971126,0.03778950996186196,0.008968544780686427,0
982,0.018684518960119505,-0.025692862900120256,0.0023255251873578356,-0.0035165758550610585,0
983,0.05257462900593204,-0.0013497448641614845,-0.016946727305427258,0.0001227368150596718,0
984,0.006950116175713586,0.001324168518896412,-0.06645528769476634,-0.011208958620942379,0
985,0.03485037441979653,0.018723079218266582,-0.0018481284940146624,0.029937701992639645,0
986,-0.0010560046572777818,-0.07078176537633041,0.03836985589455837,0.01698584955050334,0
987,-0.027727092955937793,0.003933117655623029,0.016839959443555604,-0.04850743468789993,0
988,-0.09219317690812799,-0.04831402463742407,-0.02765951511993302,0.002697278862093078,0
989,0.024828840257787914,0.0022055485258302447,0.05348537970621925,0.09692390932578529,0
990,0.011449341619856158,-0.008716504115775972,-0.02789579949196733,0.04930236367898305,0
991,-0.04225789483169875,0.03625290822711982,0.029461294080458462,-0.05125815635298171,0
992,-0.021689082814598862,0.011821101640692881,0.007087371654118488,-0.0065975191797501605,0
993,-0.04265259072512651,-0.02481226662215398,-0.027139542329217423,0.055112644935406005,0
994,0.07399389534054208,0.011333654910606469,-0.05100572194784714,-0.026129786444077253,0
995,-0.0005191564982119355,0.03176036968570343,-0.03714006092030513,0.07375660172496902,0
996,-0.007044542524518447,-0.013642027054581875,-0.07777871987301474,-0.003356454972525241,0
997,-0.06901076908920377,0.009583803337182374,0.002116334470196988,-0.06441860755159323,0
998,0.02736509313888931,-0.03791739874691612,-0.055865085688409276,0.015559103796467742,0
999,0.05579536970121035,-0.11338718757375046,0.012149297374078848,-0.07924365494952083,0
